
Time,Voltage,Current
5e-09,0.000940201,-5.33714e-07
1.5e-08,0.000940201,-4.98101e-07
2.5e-08,-0.000466987,-5.69328e-07
3.5e-08,-0.00187418,-5.33714e-07
4.5e-08,-0.00187418,-4.48242e-07
5.5e-08,0.00234739,-2.77297e-07
6.5e-08,-0.000466987,-8.49839e-08
7.5e-08,0.00375458,3.61021e-08
8.5e-08,0.000940201,4.32248e-08
9.5e-08,0.00445817,-3.51249e-08
1.05e-07,0.0523026,-7.07385e-08
1.15e-07,0.329519,-3.1291e-07
1.25e-07,0.717903,-6.0182e-06
1.35e-07,1.12739,-3.16742e-05
1.45e-07,1.53759,-8.79649e-05
1.55e-07,1.94919,-0.000116093
1.65e-07,2.34883,-0.000116093
1.75e-07,2.75129,-0.000116093
1.85e-07,3.15726,-0.000116093
1.95e-07,3.58575,-0.000116093
2.05e-07,3.91433,-0.000116093
2.15e-07,4.01143,-0.000116093
2.25e-07,3.99243,-0.000116093
2.35e-07,3.97132,-0.000116093
2.45e-07,3.9861,-0.000116093
2.55e-07,3.9875,-0.000116093
2.65e-07,3.98188,-0.000116093
2.75e-07,3.97906,-0.000116093
2.85e-07,3.97625,-0.000116093
2.95e-07,3.97625,-0.000116093
3.05e-07,3.97695,-0.000116093
3.15e-07,3.97625,-0.000116093
3.25e-07,3.97765,-0.000116093
3.35e-07,3.97554,-0.000116093
3.45e-07,3.97484,-0.000116093
3.55e-07,3.97554,-0.000116093
3.65e-07,3.97695,-0.000116093
3.75e-07,3.97484,-0.000116093
3.85e-07,3.97484,-0.000116093
3.95e-07,3.97765,-0.000116093
4.05e-07,3.97906,-0.000116093
4.15e-07,3.97273,-0.000116093
4.25e-07,3.97836,-0.000116093
4.35e-07,3.97765,-0.000116093
4.45e-07,3.97625,-0.000116093
4.55e-07,3.97765,-0.000116093
4.65e-07,3.97906,-0.000116093
4.75e-07,3.97906,-0.000116093
4.85e-07,3.98188,-0.000116093
4.95e-07,3.98328,-0.000116093
5.05e-07,3.98328,-0.000116093
5.15e-07,3.97976,-0.000116093
5.25e-07,3.97976,-0.000116093
5.35e-07,3.97906,-0.000116093
5.45e-07,3.98258,-0.000116093
5.55e-07,3.98188,-0.000116093
5.65e-07,3.98258,-0.000116093
5.75e-07,3.98258,-0.000116093
5.85e-07,3.98328,-0.000116093
5.95e-07,3.98117,-0.000116093
6.05e-07,3.98258,-0.000116093
6.15e-07,3.98399,-0.000116093
6.25e-07,3.98188,-0.000116093
6.35e-07,3.98469,-0.000116093
6.45e-07,3.98188,-0.000116093
6.55e-07,3.98469,-0.000116093
6.65e-07,3.9875,-0.000116093
6.75e-07,3.98188,-0.000116093
6.85e-07,3.98188,-0.000116093
6.95e-07,3.98539,-0.000116093
7.05e-07,3.94881,-0.000116093
7.15e-07,3.73491,-0.000116093
7.25e-07,3.43237,-0.000116093
7.35e-07,3.12842,-0.000116093
7.45e-07,2.82165,-0.000116093
7.55e-07,2.51981,-0.000116093
7.65e-07,2.22078,-0.000116093
7.75e-07,1.91683,-0.000116093
7.85e-07,1.61921,-0.000116093
7.95e-07,1.31877,-0.000116093
8.05e-07,1.05281,-0.000116093
8.15e-07,0.968382,-0.000116093
8.25e-07,0.97964,-0.000116093
8.35e-07,0.986676,-0.000116093
8.45e-07,0.990193,-0.000116093
8.55e-07,0.99934,-0.000116093
8.65e-07,1.00145,-0.000116093
8.75e-07,1.00286,-0.000116093
8.85e-07,1.00778,-0.000116093
8.95e-07,1.0106,-0.000116093
9.05e-07,1.00778,-0.000116093
9.15e-07,1.00919,-0.000116093
9.25e-07,1.00919,-0.000116093
9.35e-07,1.00778,-0.000116093
9.45e-07,1.0106,-0.000116093
9.55e-07,1.0113,-0.000116093
9.65e-07,1.00919,-0.000116093
9.75e-07,1.012,-0.000116093
9.85e-07,1.00778,-0.000116093
9.95e-07,1.0106,-0.000116093
1.005e-06,1.00849,-0.000116093
1.015e-06,1.0113,-0.000116093
1.025e-06,1.00919,-0.000116093
1.035e-06,1.00849,-5.67746e-05
1.045e-06,1.00708,0.000116678
1.055e-06,1.00849,0.000116678
1.065e-06,1.00638,0.000116678
1.075e-06,1.00708,0.000116678
1.085e-06,1.00567,0.000116678
1.095e-06,1.00778,0.000116678
1.105e-06,1.00427,0.000116678
1.115e-06,1.00497,0.000116678
1.125e-06,1.00497,0.000116678
1.135e-06,1.00708,0.000116678
1.145e-06,1.00497,0.000116678
1.155e-06,1.00497,0.000116678
1.165e-06,1.00286,0.000116678
1.175e-06,1.00286,0.000116678
1.185e-06,1.00567,0.000116678
1.195e-06,1.00567,0.000116678
1.205e-06,1.00215,0.000116678
1.215e-06,1.00567,0.000116678
1.225e-06,1.00497,0.000116678
1.235e-06,1.00427,0.000116678
1.245e-06,1.00497,0.000116678
1.255e-06,1.00427,0.000116678
1.265e-06,1.00567,0.000116678
1.275e-06,1.00215,0.000116678
1.285e-06,1.00145,0.000116678
1.295e-06,1.00356,0.000116678
1.305e-06,1.00356,0.000116678
1.315e-06,1.00638,0.000116678
1.325e-06,1.00286,0.000116678
1.335e-06,1.00286,0.000116678
1.345e-06,1.00356,0.000116678
1.355e-06,1.00004,0.000116678
1.365e-06,1.00215,0.000116678
1.375e-06,1.00286,0.000116678
1.385e-06,1.00215,0.000116678
1.395e-06,1.00286,0.000116678
1.405e-06,1.00286,0.000116678
1.415e-06,1.00427,0.000116678
1.425e-06,1.00567,0.000116678
1.435e-06,1.00215,0.000116678
1.445e-06,1.00427,0.000116678
1.455e-06,1.00215,0.000116678
1.465e-06,1.00286,0.000116678
1.475e-06,1.00356,0.000116678
1.485e-06,1.00215,0.000116678
1.495e-06,1.00497,0.000103265
1.505e-06,1.00004,9.17453e-06
1.515e-06,1.00497,-9.38269e-05
1.525e-06,1.00427,-0.000116093
1.535e-06,1.00356,-0.000116093
1.545e-06,1.00215,-0.000116093
1.555e-06,1.00497,-0.000116093
1.565e-06,1.00075,-0.000116093
1.575e-06,1.00356,-0.000116093
1.585e-06,1.00286,-0.000116093
1.595e-06,1.00215,-0.000116093
1.605e-06,1.00004,-0.000116093
1.615e-06,1.00286,-0.000116093
1.625e-06,1.00145,-0.000116093
1.635e-06,1.00145,-0.000116093
1.645e-06,1.00356,-0.000116093
1.655e-06,1.00215,-0.000116093
1.665e-06,1.00004,-0.000116093
1.675e-06,1.00145,-0.000116093
1.685e-06,1.00215,-0.000116093
1.695e-06,1.00356,-0.000116093
1.705e-06,1.00075,-0.000116093
1.715e-06,1.00145,-0.000116093
1.725e-06,0.998637,-0.000116093
1.735e-06,1.00145,-0.000116093
1.745e-06,1.00215,-0.000116093
1.755e-06,1.00004,-0.000116093
1.765e-06,1.00004,-0.000116093
1.775e-06,1.00075,-0.000116093
1.785e-06,0.99934,-0.000116093
1.795e-06,1.00075,-0.000116093
1.805e-06,1.00075,-0.000116093
1.815e-06,1.00075,-0.000116093
1.825e-06,0.997933,-0.000116093
1.835e-06,0.99934,-0.000116093
1.845e-06,1.00075,-0.000116093
1.855e-06,1.00004,-0.000116093
1.865e-06,0.997933,-0.000116093
1.875e-06,1.00356,-0.000116093
1.885e-06,1.00004,-0.000116093
1.895e-06,1.00215,-0.000116093
1.905e-06,1.00004,-0.000116093
1.915e-06,1.00004,-0.000116093
1.925e-06,1.00004,-0.000116093
1.935e-06,0.998637,-0.000116093
1.945e-06,1.00075,-0.000116093
1.955e-06,1.00004,-0.000116093
1.965e-06,0.997933,-0.000116093
1.975e-06,0.998637,-0.000116093
1.985e-06,0.998637,-0.000116093
1.995e-06,1.00004,-0.000116093
2.005e-06,0.998637,-0.000116093
2.015e-06,0.99934,-0.000116093
2.025e-06,0.997933,-0.000116093
2.035e-06,1.00145,-0.000116093
2.045e-06,1.00075,-0.000116093
2.055e-06,0.998637,-0.000116093
2.065e-06,1.00004,-0.000116093
2.075e-06,0.997933,-0.000116093
2.085e-06,0.998637,-0.000116093
2.095e-06,0.99934,-0.000116093
2.105e-06,0.998637,-0.000116093
2.115e-06,0.997933,-0.000116093
2.125e-06,0.99934,-0.000116093
2.135e-06,1.00075,-0.000116093
2.145e-06,0.997933,-0.000116093
2.155e-06,0.997229,-0.000116093
2.165e-06,1.00145,-0.000116093
2.175e-06,0.998637,-0.000116093
2.185e-06,1.00075,-0.000116093
2.195e-06,1.00356,-0.000116093
2.205e-06,0.99934,-0.000116093
2.215e-06,0.997933,-0.000116093
2.225e-06,1.00075,-0.000116093
2.235e-06,0.996526,-0.000116093
2.245e-06,0.997933,-0.000116093
2.255e-06,1.00215,-0.000116093
2.265e-06,0.997933,-0.000116093
2.275e-06,1.00075,-0.000116093
2.285e-06,1.00145,-0.000116093
2.295e-06,1.00145,-0.000116093
2.305e-06,0.997229,-0.000116093
2.315e-06,0.997933,-0.000116093
2.325e-06,1.00145,-0.000116093
2.335e-06,0.99934,-0.000116093
2.345e-06,0.99934,-0.000116093
2.355e-06,0.99934,-0.000116093
2.365e-06,1.00075,-0.000116093
2.375e-06,0.996526,-0.000116093
2.385e-06,1.00075,-0.000116093
2.395e-06,1.00075,-0.000116093
2.405e-06,0.997229,-0.000116093
2.415e-06,0.997933,-0.000116093
2.425e-06,1.00004,-0.000116093
2.435e-06,1.00075,-0.000116093
2.445e-06,0.997933,-0.000116093
2.455e-06,1.00145,-0.000116093
2.465e-06,0.997933,-0.000116093
2.475e-06,0.998637,-0.000116093
2.485e-06,0.998637,-0.000116093
2.495e-06,0.998637,-0.000116093
2.505e-06,0.997229,-0.000116093
2.515e-06,1.00075,-0.000116093
2.525e-06,0.995822,-0.000116093
2.535e-06,1.00075,-0.000116093
2.545e-06,1.00215,-0.000116093
2.555e-06,1.00004,-0.000116093
2.565e-06,1.00075,-0.000116093
2.575e-06,1.00004,-0.000116093
2.585e-06,1.00004,-0.000116093
2.595e-06,1.00145,-0.000116093
2.605e-06,0.99934,-0.000116093
2.615e-06,1.00145,-0.000116093
2.625e-06,1.00145,-0.000116093
2.635e-06,1.00004,-0.000116093
2.645e-06,1.00004,-0.000116093
2.655e-06,0.997933,-0.000116093
2.665e-06,0.997933,-0.000116093
2.675e-06,0.998637,-0.000116093
2.685e-06,1.00075,-0.000116093
2.695e-06,0.998637,-0.000116093
2.705e-06,0.996526,-0.000116093
2.715e-06,0.99934,-0.000116093
2.725e-06,1.00215,-0.000116093
2.735e-06,0.99934,-0.000116093
2.745e-06,0.99934,-0.000116093
2.755e-06,0.998637,-0.000116093
2.765e-06,0.995822,-0.000116093
2.775e-06,1.00004,-0.000116093
2.785e-06,0.99934,-0.000116093
2.795e-06,0.997933,-0.000116093
2.805e-06,1.00145,-0.000116093
2.815e-06,1.00004,-0.000116093
2.825e-06,1.00075,-0.000116093
2.835e-06,1.00004,-0.000116093
2.845e-06,0.997933,-0.000116093
2.855e-06,1.00145,-0.000116093
2.865e-06,0.99934,-0.000116093
2.875e-06,1.00145,-0.000116093
2.885e-06,1.00075,-0.000116093
2.895e-06,1.00145,-0.000116093
2.905e-06,0.99934,-0.000116093
2.915e-06,0.99934,-0.000116093
2.925e-06,0.997933,-0.000116093
2.935e-06,0.998637,-0.000116093
2.945e-06,0.996526,-0.000116093
2.955e-06,0.99934,-0.000116093
2.965e-06,0.995822,-0.000116093
2.975e-06,1.00004,-0.000116093
2.985e-06,1.00075,-0.000116093
2.995e-06,0.997933,-0.000116093
3.005e-06,0.99934,-0.000116093
3.015e-06,1.00215,-0.000116093
3.025e-06,1.00215,-0.000116093
3.035e-06,1.00075,-0.000116093
3.045e-06,0.997229,-0.000116093
3.055e-06,0.997933,-0.000116093
3.065e-06,1.00075,-0.000116093
3.075e-06,1.00004,-0.000116093
3.085e-06,0.998637,-0.000116093
3.095e-06,0.997933,-0.000116093
3.105e-06,0.998637,-0.000116093
3.115e-06,0.998637,-0.000116093
3.125e-06,0.99934,-0.000116093
3.135e-06,1.00215,-0.000116093
3.145e-06,0.997229,-0.000116093
3.155e-06,0.99934,-0.000116093
3.165e-06,1.00215,-0.000116093
3.175e-06,1.00075,-0.000116093
3.185e-06,0.997229,-0.000116093
3.195e-06,0.998637,-0.000116093
3.205e-06,1.00004,-0.000116093
3.215e-06,0.998637,-0.000116093
3.225e-06,1.00075,-0.000116093
3.235e-06,1.00075,-0.000116093
3.245e-06,0.99934,-0.000116093
3.255e-06,1.00004,-0.000116093
3.265e-06,0.997933,-0.000116093
3.275e-06,0.998637,-0.000116093
3.285e-06,1.00004,-0.000116093
3.295e-06,0.99934,-0.000116093
3.305e-06,1.00215,-0.000116093
3.315e-06,0.997933,-0.000116093
3.325e-06,0.998637,-0.000116093
3.335e-06,0.998637,-0.000116093
3.345e-06,0.99934,-0.000116093
3.355e-06,1.00145,-0.000116093
3.365e-06,0.998637,-0.000116093
3.375e-06,1.00004,-0.000116093
3.385e-06,0.99934,-0.000116093
3.395e-06,1.00004,-0.000116093
3.405e-06,1.00286,-0.000116093
3.415e-06,1.00145,-0.000116093
3.425e-06,1.00215,-0.000116093
3.435e-06,1.00004,-0.000116093
3.445e-06,1.00215,-0.000116093
3.455e-06,1.00075,-0.000116093
3.465e-06,1.00145,-0.000116093
3.475e-06,1.00215,-0.000116093
3.485e-06,1.00145,-0.000116093
3.495e-06,1.00075,-0.000116093
3.505e-06,1.00075,-0.000116093
3.515e-06,1.00075,-0.000116093
3.525e-06,0.997229,-0.000116093
3.535e-06,0.99934,-0.000116093
3.545e-06,0.997229,-0.000116093
3.555e-06,0.998637,-0.000116093
3.565e-06,1.00215,-0.000116093
3.575e-06,0.99934,-0.000116093
3.585e-06,1.00075,-0.000116093
3.595e-06,1.00004,-0.000116093
3.605e-06,0.997933,-0.000116093
3.615e-06,0.996526,-0.000116093
3.625e-06,0.99934,-0.000116093
3.635e-06,0.99934,-0.000116093
3.645e-06,0.998637,-0.000116093
3.655e-06,0.997933,-0.000116093
3.665e-06,1.00004,-0.000116093
3.675e-06,0.998637,-0.000116093
3.685e-06,1.00075,-0.000116093
3.695e-06,1.00075,-0.000116093
3.705e-06,1.00004,-0.000116093
3.715e-06,1.00004,-0.000116093
3.725e-06,1.00215,-0.000116093
3.735e-06,0.997229,-0.000116093
3.745e-06,0.99934,-0.000116093
3.755e-06,1.00004,-0.000116093
3.765e-06,0.997933,-0.000116093
3.775e-06,1.00004,-0.000116093
3.785e-06,0.99934,-0.000116093
3.795e-06,1.00004,-0.000116093
3.805e-06,0.99934,-0.000116093
3.815e-06,0.99934,-0.000116093
3.825e-06,1.00075,-0.000116093
3.835e-06,1.00004,-0.000116093
3.845e-06,0.99934,-0.000116093
3.855e-06,1.00004,-0.000116093
3.865e-06,0.998637,-0.000116093
3.875e-06,0.996526,-0.000116093
3.885e-06,0.997933,-0.000116093
3.895e-06,0.99934,-0.000116093
3.905e-06,1.00004,-0.000116093
3.915e-06,0.99934,-0.000116093
3.925e-06,1.00075,-0.000116093
3.935e-06,1.00145,-0.000116093
3.945e-06,0.99934,-0.000116093
3.955e-06,1.00075,-0.000116093
3.965e-06,0.99934,-0.000116093
3.975e-06,0.99934,-0.000116093
3.985e-06,1.00145,-0.000116093
3.995e-06,0.99934,-0.000116093
4.005e-06,0.99934,-0.000116093
4.015e-06,1.00145,-0.000116093
4.025e-06,0.99934,-0.000116093
4.035e-06,1.00004,-0.000116093
4.045e-06,0.998637,-0.000116093
4.055e-06,0.997933,-0.000116093
4.065e-06,1.00286,-0.000116093
4.075e-06,1.00075,-0.000116093
4.085e-06,1.00004,-0.000116093
4.095e-06,0.99934,-0.000116093
4.105e-06,1.00145,-0.000116093
4.115e-06,1.00215,-0.000116093
4.125e-06,0.99934,-0.000116093
4.135e-06,0.99934,-0.000116093
4.145e-06,0.99934,-0.000116093
4.155e-06,0.99934,-0.000116093
4.165e-06,0.998637,-0.000116093
4.175e-06,1.00145,-0.000116093
4.185e-06,1.00004,-0.000116093
4.195e-06,0.998637,-0.000116093
4.205e-06,1.00004,-0.000116093
4.215e-06,0.998637,-0.000116093
4.225e-06,1.00075,-0.000116093
4.235e-06,0.997933,-0.000116093
4.245e-06,1.00145,-0.000116093
4.255e-06,0.99934,-0.000116093
4.265e-06,0.99934,-0.000116093
4.275e-06,0.997933,-0.000116093
4.285e-06,1.00004,-0.000116093
4.295e-06,1.00004,-0.000116093
4.305e-06,0.99934,-0.000116093
4.315e-06,1.00004,-0.000116093
4.325e-06,1.00075,-0.000116093
4.335e-06,0.996526,-0.000116093
4.345e-06,0.997933,-0.000116093
4.355e-06,0.99934,-0.000116093
4.365e-06,0.99934,-0.000116093
4.375e-06,1.00145,-0.000116093
4.385e-06,0.998637,-0.000116093
4.395e-06,1.00286,-0.000116093
4.405e-06,0.998637,-0.000116093
4.415e-06,1.00004,-0.000116093
4.425e-06,0.997933,-0.000116093
4.435e-06,1.00075,-0.000116093
4.445e-06,1.00075,-0.000116093
4.455e-06,0.998637,-0.000116093
4.465e-06,1.00075,-0.000116093
4.475e-06,1.00075,-0.000116093
4.485e-06,0.99934,-0.000116093
4.495e-06,1.00215,-0.000116093
4.505e-06,0.998637,-0.000116093
4.515e-06,0.99934,-0.000116093
4.525e-06,0.998637,-0.000116093
4.535e-06,1.00075,-0.000116093
4.545e-06,1.00004,-0.000116093
4.555e-06,0.99934,-0.000116093
4.565e-06,0.997229,-0.000116093
4.575e-06,1.00004,-0.000116093
4.585e-06,0.998637,-0.000116093
4.595e-06,1.00427,-0.000116093
4.605e-06,1.00004,-0.000116093
4.615e-06,0.99934,-0.000116093
4.625e-06,0.997933,-0.000116093
4.635e-06,1.00004,-0.000116093
4.645e-06,0.997229,-0.000116093
4.655e-06,0.99934,-0.000116093
4.665e-06,0.998637,-0.000116093
4.675e-06,1.00075,-0.000116093
4.685e-06,1.00215,-0.000116093
4.695e-06,0.997229,-0.000116093
4.705e-06,0.99934,-0.000116093
4.715e-06,1.00075,-0.000116093
4.725e-06,1.00145,-0.000116093
4.735e-06,0.997933,-0.000116093
4.745e-06,1.00004,-0.000116093
4.755e-06,0.99934,-0.000116093
4.765e-06,0.998637,-0.000116093
4.775e-06,1.00075,-0.000116093
4.785e-06,1.00356,-0.000116093
4.795e-06,0.99934,-0.000116093
4.805e-06,1.00215,-0.000116093
4.815e-06,1.00004,-0.000116093
4.825e-06,0.996526,-0.000116093
4.835e-06,0.99934,-0.000116093
4.845e-06,0.997229,-0.000116093
4.855e-06,0.99934,-0.000116093
4.865e-06,0.998637,-0.000116093
4.875e-06,1.00145,-0.000116093
4.885e-06,0.998637,-0.000116093
4.895e-06,0.996526,-0.000116093
4.905e-06,1.00004,-0.000116093
4.915e-06,1.00075,-0.000116093
4.925e-06,1.00145,-0.000116093
4.935e-06,1.00004,-0.000116093
4.945e-06,0.995822,-0.000116093
4.955e-06,0.99934,-0.000116093
4.965e-06,1.00145,-0.000116093
4.975e-06,1.00145,-0.000116093
4.985e-06,1.00075,-0.000116093
4.995e-06,1.00145,-0.000116093
5.005e-06,1.00004,-0.000116093
5.015e-06,0.998637,-0.000116093
5.025e-06,1.00075,-0.000116093
5.035e-06,0.998637,-0.000116093
5.045e-06,1.00075,-0.000116093
5.055e-06,1.00286,-0.000116093
5.065e-06,1.00145,-0.000116093
5.075e-06,0.99934,-0.000116093
5.085e-06,0.99934,-0.000116093
5.095e-06,1.00075,-0.000116093
5.105e-06,1.00215,-0.000116093
5.115e-06,0.997933,-0.000116093
5.125e-06,0.99934,-0.000116093
5.135e-06,0.998637,-0.000116093
5.145e-06,0.99934,-0.000116093
5.155e-06,1.00145,-0.000116093
5.165e-06,1.00286,-0.000116093
5.175e-06,0.998637,-0.000116093
5.185e-06,1.00215,-0.000116093
5.195e-06,1.00004,-0.000116093
5.205e-06,0.99934,-0.000116093
5.215e-06,0.997933,-0.000116093
5.225e-06,1.00004,-0.000116093
5.235e-06,1.00004,-0.000116093
5.245e-06,1.00075,-0.000116093
5.255e-06,1.00004,-0.000116093
5.265e-06,0.997229,-0.000116093
5.275e-06,0.998637,-0.000116093
5.285e-06,1.00075,-0.000116093
5.295e-06,0.99934,-0.000116093
5.305e-06,1.00145,-0.000116093
5.315e-06,0.997933,-0.000116093
5.325e-06,0.99934,-0.000116093
5.335e-06,1.00004,-0.000116093
5.345e-06,0.997229,-0.000116093
5.355e-06,1.00075,-0.000116093
5.365e-06,1.00145,-0.000116093
5.375e-06,0.99934,-0.000116093
5.385e-06,1.00075,-0.000116093
5.395e-06,1.00145,-0.000116093
5.405e-06,0.99934,-0.000116093
5.415e-06,0.99934,-0.000116093
5.425e-06,0.99934,-0.000116093
5.435e-06,0.998637,-0.000116093
5.445e-06,1.00075,-0.000116093
5.455e-06,0.997933,-0.000116093
5.465e-06,0.99934,-0.000116093
5.475e-06,1.00215,-0.000116093
5.485e-06,0.997933,-0.000116093
5.495e-06,1.00004,-0.000116093
5.505e-06,1.00004,-0.000116093
5.515e-06,1.00215,-0.000116093
5.525e-06,1.00215,-0.000116093
5.535e-06,1.00075,-0.000116093
5.545e-06,0.997229,-0.000116093
5.555e-06,1.00215,-0.000116093
5.565e-06,1.00145,-0.000116093
5.575e-06,0.997933,-0.000116093
5.585e-06,1.00075,-0.000116093
5.595e-06,1.00004,-0.000116093
5.605e-06,0.99934,-0.000116093
5.615e-06,0.99934,-0.000116093
5.625e-06,0.997933,-0.000116093
5.635e-06,1.00145,-0.000116093
5.645e-06,0.998637,-0.000116093
5.655e-06,1.00004,-0.000116093
5.665e-06,1.00075,-0.000116093
5.675e-06,1.00075,-0.000116093
5.685e-06,0.998637,-0.000116093
5.695e-06,0.99934,-0.000116093
5.705e-06,1.00286,-0.000116093
5.715e-06,1.00004,-0.000116093
5.725e-06,0.99934,-0.000116093
5.735e-06,0.99934,-0.000116093
5.745e-06,1.00075,-0.000116093
5.755e-06,1.00145,-0.000116093
5.765e-06,1.00004,-0.000116093
5.775e-06,1.00004,-0.000116093
5.785e-06,0.99934,-0.000116093
5.795e-06,0.997933,-0.000116093
5.805e-06,0.988786,-0.000116093
5.815e-06,0.915612,-0.000116093
5.825e-06,0.814999,-0.000116093
5.835e-06,0.712977,-0.000116093
5.845e-06,0.61166,-0.000116093
5.855e-06,0.511046,-0.000116093
5.865e-06,0.411839,-0.000116093
5.875e-06,0.311929,-0.000110872
5.885e-06,0.209908,-6.31779e-05
5.895e-06,0.112108,1.26833e-06
5.905e-06,0.0227516,7.3863e-05
5.915e-06,-0.00187418,0.000116678
5.925e-06,-0.00468855,0.000116678
5.935e-06,-0.00398496,0.000116678
5.945e-06,-0.000466987,0.000116678
5.955e-06,0.00375458,0.000116678
5.965e-06,0.00305098,0.000116678
5.975e-06,0.00375458,0.000116678
5.985e-06,0.00656895,0.000116678
5.995e-06,0.00656895,0.000116678
6.005e-06,0.00656895,0.000116678
6.015e-06,0.00656895,0.000116678
6.025e-06,0.00727255,0.000116678
6.035e-06,0.00586536,0.000116678
6.045e-06,0.00445817,0.000116678
6.055e-06,0.00445817,0.000116678
6.065e-06,0.00586536,0.000116678
6.075e-06,0.00516177,0.000116678
6.085e-06,0.00516177,0.000116678
6.095e-06,0.00727255,0.000116678
6.105e-06,0.051599,0.000116678
6.115e-06,0.336555,0.000116678
6.125e-06,0.734085,0.000116678
6.135e-06,1.14921,0.000116678
6.145e-06,1.55307,0.000116678
6.155e-06,1.95904,0.000116678
6.165e-06,2.35728,0.000116678
6.175e-06,2.75833,0.000116678
6.185e-06,3.15093,0.000116678
6.195e-06,3.56324,0.000116678
6.205e-06,3.90307,6.98956e-05
6.215e-06,4.01143,-1.56267e-05
6.225e-06,3.99947,-9.65122e-05
6.235e-06,3.99173,-0.000116093
6.245e-06,3.98539,-0.000116093
6.255e-06,3.98821,-0.000116093
6.265e-06,3.98891,-0.000116093
6.275e-06,3.98539,-0.000116093
6.285e-06,3.98047,-0.000116093
6.295e-06,3.98117,-0.000116093
6.305e-06,3.98047,-0.000116093
6.315e-06,3.97976,-0.000116093
6.325e-06,3.97836,-0.000116093
6.335e-06,3.97554,-0.000116093
6.345e-06,3.97765,-0.000116093
6.355e-06,3.97765,-0.000116093
6.365e-06,3.97836,-0.000116093
6.375e-06,3.97976,-0.000116093
6.385e-06,3.98188,-0.000116093
6.395e-06,3.98188,-0.000116093
6.405e-06,3.97906,-0.000116093
6.415e-06,3.97906,-0.000116093
6.425e-06,3.97976,-0.000116093
