
Time,Voltage,Current
5e-09,0.00305098,-2.0132e-06
1.5e-08,0.000236607,1.08331e-05
2.5e-08,-0.00257777,6.55099e-06
3.5e-08,-0.000466987,2.98258e-06
4.5e-08,0.000236607,-1.29952e-06
5.5e-08,0.00234739,2.98258e-06
6.5e-08,0.00305098,-2.72688e-06
7.5e-08,0.000940201,8.41529e-07
8.5e-08,0.00445817,2.2689e-06
9.5e-08,0.000236607,2.2689e-06
1.05e-07,0.0473774,1.55521e-06
1.15e-07,0.333037,-1.62869e-05
1.25e-07,0.739714,-0.00015831
1.35e-07,1.14569,-0.000657888
1.45e-07,1.54181,-0.00135016
1.55e-07,1.94216,-0.00208954
1.65e-07,2.33476,-0.00288957
1.75e-07,2.74285,-0.00367891
1.85e-07,3.14178,-0.00432265
1.95e-07,3.54424,-0.00484292
2.05e-07,3.89252,-0.00532537
2.15e-07,4.00932,-0.00580568
2.25e-07,4.00017,-0.00617037
2.35e-07,3.99665,-0.0061718
2.45e-07,4.00017,-0.00591559
2.55e-07,3.98821,-0.0055666
2.65e-07,3.98399,-0.00513767
2.75e-07,3.98399,-0.0046645
2.85e-07,3.98117,-0.00427269
2.95e-07,3.97695,-0.00398936
3.05e-07,3.97695,-0.00376598
3.15e-07,3.97836,-0.00354759
3.25e-07,3.97695,-0.0033292
3.35e-07,3.97625,-0.00312152
3.45e-07,3.97906,-0.00295595
3.55e-07,3.97625,-0.00282177
3.65e-07,3.97554,-0.00271401
3.75e-07,3.97343,-0.00261267
3.85e-07,3.97484,-0.0025206
3.95e-07,3.97695,-0.00244709
4.05e-07,3.97625,-0.00238643
4.15e-07,3.97836,-0.00231078
4.25e-07,3.97554,-0.00226439
4.35e-07,3.97836,-0.00224155
4.45e-07,3.97625,-0.002213
4.55e-07,3.97625,-0.0021816
4.65e-07,3.98047,-0.00214235
4.75e-07,3.97836,-0.00212665
4.85e-07,3.97836,-0.00211095
4.95e-07,3.97695,-0.00210024
5.05e-07,3.97836,-0.00208597
5.15e-07,3.98047,-0.0020667
5.25e-07,3.97906,-0.00205314
5.35e-07,3.97976,-0.00205385
5.45e-07,3.98258,-0.00204743
5.55e-07,3.98117,-0.00203958
5.65e-07,3.97976,-0.00202887
5.75e-07,3.98188,-0.00202459
5.85e-07,3.98469,-0.00202245
5.95e-07,3.98047,-0.00201674
6.05e-07,3.97976,-0.00201531
6.15e-07,3.98328,-0.00201389
6.25e-07,3.98258,-0.00201531
6.35e-07,3.97976,-0.00200818
6.45e-07,3.98328,-0.00199604
6.55e-07,3.98469,-0.00199747
6.65e-07,3.98117,-0.00200389
6.75e-07,3.98328,-0.00199604
6.85e-07,3.98117,-0.00198391
6.95e-07,3.98539,-0.00199247
7.05e-07,3.9467,-0.00199176
7.15e-07,3.73843,-0.00198891
7.25e-07,3.42815,-0.00186044
7.35e-07,3.1256,-0.0014201
7.45e-07,2.82517,-0.000826317
7.55e-07,2.52755,-0.000221114
7.65e-07,2.22852,0.000404072
7.75e-07,1.92879,0.00100856
7.85e-07,1.62765,0.00149101
7.95e-07,1.32299,0.00188925
8.05e-07,1.06407,0.00225608
8.15e-07,0.974011,0.00262077
8.25e-07,0.982454,0.0028413
8.35e-07,0.988786,0.00277207
8.45e-07,0.988786,0.00251586
8.55e-07,0.993711,0.00221112
8.65e-07,0.995119,0.00186355
8.75e-07,1.00215,0.00152027
8.85e-07,1.00427,0.00125764
8.95e-07,1.00638,0.00107779
9.05e-07,1.00778,0.000931484
9.15e-07,1.00497,0.000776615
9.25e-07,1.00567,0.0006246
9.35e-07,1.00778,0.000495424
9.45e-07,1.0113,0.000396222
9.55e-07,1.00989,0.000317717
9.65e-07,1.00638,0.000261336
9.75e-07,1.00638,0.000197104
9.85e-07,1.00708,0.0001343
9.95e-07,1.00778,9.14792e-05
1.005e-06,1.00849,4.86583e-05
1.015e-06,1.00708,7.97836e-06
1.025e-06,1.0113,-1.34321e-05
1.035e-06,1.00778,-2.91331e-05
1.045e-06,1.00989,-5.62531e-05
1.055e-06,1.00919,-8.26594e-05
1.065e-06,1.00708,-0.000101929
1.075e-06,1.00497,-0.000109066
1.085e-06,1.00567,-0.00011763
1.095e-06,1.00849,-0.000131903
1.105e-06,1.00497,-0.000146891
1.115e-06,1.00567,-0.000156882
1.125e-06,1.00708,-0.00015831
1.135e-06,1.00638,-0.000159737
1.145e-06,1.00638,-0.00017187
1.155e-06,1.00778,-0.000175438
1.165e-06,1.00708,-0.000186857
1.175e-06,1.00638,-0.000187571
1.185e-06,1.00849,-0.000186857
1.195e-06,1.00567,-0.000186143
1.205e-06,1.00427,-0.000195421
1.215e-06,1.00567,-0.000201844
1.225e-06,1.00075,-0.000204699
1.235e-06,1.00497,-0.000207554
1.245e-06,1.00778,-0.000204699
1.255e-06,1.00778,-0.000203272
1.265e-06,1.00497,-0.000206126
1.275e-06,1.00497,-0.00021255
1.285e-06,1.00286,-0.000214691
1.295e-06,1.00356,-0.000211836
1.305e-06,1.00286,-0.000213263
1.315e-06,1.00356,-0.000217545
1.325e-06,1.00427,-0.000218259
1.335e-06,1.00286,-0.000216832
1.345e-06,1.00356,-0.000219686
1.355e-06,1.00215,-0.000218973
1.365e-06,1.00497,-0.0002204
1.375e-06,1.00215,-0.000223255
1.385e-06,1.00427,-0.000221828
1.395e-06,1.00427,-0.000219686
1.405e-06,1.00356,-0.000222541
1.415e-06,1.00145,-0.000222541
1.425e-06,1.00356,-0.000221114
1.435e-06,1.00356,-0.00022611
1.445e-06,1.00215,-0.000222541
1.455e-06,1.00356,-0.000219686
1.465e-06,1.00215,-0.000223255
1.475e-06,1.00286,-0.000227537
1.485e-06,1.00356,-0.000228251
1.495e-06,1.00215,-0.000221828
1.505e-06,1.00356,-0.000221114
1.515e-06,1.00215,-0.000225396
1.525e-06,1.00215,-0.000231819
1.535e-06,1.00004,-0.000231105
1.545e-06,1.00497,-0.000225396
1.555e-06,1.00356,-0.0002204
1.565e-06,1.00356,-0.000225396
1.575e-06,1.00145,-0.000230392
1.585e-06,1.00215,-0.000227537
1.595e-06,1.00356,-0.000223969
1.605e-06,1.00215,-0.000224682
1.615e-06,1.00215,-0.000223969
1.625e-06,1.00286,-0.000231819
1.635e-06,1.00075,-0.000228251
1.645e-06,1.00215,-0.000222541
1.655e-06,1.00215,-0.000223969
1.665e-06,1.00286,-0.000223969
1.675e-06,1.00075,-0.000227537
1.685e-06,1.00215,-0.000229678
1.695e-06,0.99934,-0.000228251
1.705e-06,1.00145,-0.000228964
1.715e-06,1.00075,-0.000231819
1.725e-06,1.00567,-0.000231105
1.735e-06,1.00075,-0.000228251
1.745e-06,0.998637,-0.000224682
1.755e-06,1.00145,-0.000228964
1.765e-06,1.00075,-0.000226823
1.775e-06,0.997229,-0.000232533
1.785e-06,0.997229,-0.000231105
1.795e-06,1.00075,-0.000223255
1.805e-06,1.00004,-0.000222541
1.815e-06,1.00286,-0.000224682
1.825e-06,1.00075,-0.000230392
1.835e-06,1.00356,-0.000238956
1.845e-06,1.00075,-0.000235387
1.855e-06,0.99934,-0.000228251
1.865e-06,1.00075,-0.000228251
1.875e-06,1.00004,-0.000232533
1.885e-06,0.99934,-0.00023396
1.895e-06,1.00004,-0.000231105
1.905e-06,1.00004,-0.000227537
1.915e-06,1.00004,-0.000231105
1.925e-06,0.99934,-0.000231105
1.935e-06,0.998637,-0.000223255
1.945e-06,0.997933,-0.000221114
1.955e-06,1.00145,-0.00023396
1.965e-06,1.00145,-0.000238956
1.975e-06,0.99934,-0.000238242
1.985e-06,1.00145,-0.000229678
1.995e-06,1.00004,-0.000230392
2.005e-06,1.00286,-0.000229678
2.015e-06,1.00075,-0.000234674
2.025e-06,1.00004,-0.000228251
2.035e-06,1.00004,-0.000228251
2.045e-06,1.00145,-0.000229678
2.055e-06,0.99934,-0.000231819
2.065e-06,1.00075,-0.00023396
2.075e-06,0.99934,-0.000229678
2.085e-06,1.00004,-0.000224682
2.095e-06,1.00004,-0.000226823
2.105e-06,1.00004,-0.000233246
2.115e-06,1.00004,-0.000234674
2.125e-06,0.997229,-0.00022611
2.135e-06,1.00004,-0.00022611
2.145e-06,0.99934,-0.000232533
2.155e-06,0.99934,-0.000236815
2.165e-06,1.00004,-0.000226823
2.175e-06,0.998637,-0.000230392
2.185e-06,0.997933,-0.000235387
2.195e-06,1.00145,-0.000230392
2.205e-06,0.997229,-0.00022611
2.215e-06,0.99934,-0.000238956
2.225e-06,0.997933,-0.000234674
2.235e-06,0.99934,-0.000223255
2.245e-06,1.00075,-0.000236101
2.255e-06,1.00145,-0.000243238
2.265e-06,1.00145,-0.000234674
2.275e-06,1.00145,-0.000228251
2.285e-06,0.997933,-0.000233246
2.295e-06,1.00075,-0.000223969
2.305e-06,0.997933,-0.000232533
2.315e-06,0.998637,-0.000237529
2.325e-06,1.00215,-0.00023396
2.335e-06,1.00004,-0.000230392
2.345e-06,1.00145,-0.000231819
2.355e-06,0.998637,-0.000228251
2.365e-06,1.00215,-0.000226823
2.375e-06,0.99934,-0.000238242
2.385e-06,0.998637,-0.000231819
2.395e-06,0.998637,-0.000225396
2.405e-06,0.99934,-0.000232533
2.415e-06,0.99934,-0.000237529
2.425e-06,0.99934,-0.000231105
2.435e-06,1.00004,-0.000234674
2.445e-06,0.997933,-0.000240383
2.455e-06,1.00075,-0.000232533
2.465e-06,0.997933,-0.000229678
2.475e-06,0.997933,-0.000235387
2.485e-06,0.998637,-0.000234674
2.495e-06,0.998637,-0.000231819
2.505e-06,0.99934,-0.000234674
2.515e-06,0.99934,-0.000237529
2.525e-06,0.997933,-0.000234674
2.535e-06,0.99934,-0.000232533
2.545e-06,1.00004,-0.000230392
2.555e-06,1.00075,-0.000230392
2.565e-06,0.997229,-0.000232533
2.575e-06,0.998637,-0.000231105
2.585e-06,0.99934,-0.00023396
2.595e-06,1.00356,-0.000230392
2.605e-06,0.99934,-0.000234674
2.615e-06,1.00145,-0.000231819
2.625e-06,0.99934,-0.000228964
2.635e-06,1.00075,-0.000231105
2.645e-06,1.00004,-0.000231105
2.655e-06,0.99934,-0.000227537
2.665e-06,0.997229,-0.000230392
2.675e-06,1.00004,-0.000237529
2.685e-06,1.00004,-0.000235387
2.695e-06,1.00075,-0.000230392
2.705e-06,0.99934,-0.000230392
2.715e-06,1.00004,-0.000231105
2.725e-06,0.99934,-0.000230392
2.735e-06,0.998637,-0.000235387
2.745e-06,1.00004,-0.00023396
2.755e-06,1.00004,-0.000231105
2.765e-06,1.00356,-0.000230392
2.775e-06,0.997933,-0.000234674
2.785e-06,1.00004,-0.000235387
2.795e-06,0.99934,-0.000233246
2.805e-06,1.00075,-0.000228964
2.815e-06,0.99934,-0.000225396
2.825e-06,1.00145,-0.00023967
2.835e-06,1.00075,-0.000236101
2.845e-06,0.99934,-0.000226823
2.855e-06,0.998637,-0.000228251
2.865e-06,1.00075,-0.000231819
2.875e-06,1.00004,-0.000238956
2.885e-06,1.00075,-0.000236101
2.895e-06,1.00286,-0.000231105
2.905e-06,1.00215,-0.000230392
2.915e-06,1.00215,-0.000235387
2.925e-06,0.99934,-0.000234674
2.935e-06,1.00075,-0.000230392
2.945e-06,0.998637,-0.000231819
2.955e-06,0.994415,-0.000231819
2.965e-06,1.00004,-0.000236101
2.975e-06,0.998637,-0.00023396
2.985e-06,0.997933,-0.000231819
2.995e-06,1.00004,-0.000233246
3.005e-06,0.998637,-0.00023967
3.015e-06,0.996526,-0.000241097
3.025e-06,1.00004,-0.00023396
3.035e-06,1.00075,-0.000233246
3.045e-06,1.00145,-0.000235387
3.055e-06,1.00075,-0.000234674
3.065e-06,1.00145,-0.000229678
3.075e-06,0.99934,-0.000235387
3.085e-06,0.998637,-0.000232533
3.095e-06,1.00004,-0.000228251
3.105e-06,1.00145,-0.000228964
3.115e-06,0.997933,-0.000238242
3.125e-06,1.00075,-0.000236101
3.135e-06,1.00286,-0.000226823
3.145e-06,1.00004,-0.000235387
3.155e-06,0.99934,-0.000234674
3.165e-06,0.99934,-0.000232533
3.175e-06,0.997229,-0.000234674
3.185e-06,0.995822,-0.000232533
3.195e-06,0.997229,-0.000230392
3.205e-06,0.99934,-0.000237529
3.215e-06,1.00145,-0.000241097
3.225e-06,1.00004,-0.000238956
3.235e-06,1.00004,-0.000229678
3.245e-06,0.99934,-0.000232533
3.255e-06,1.00075,-0.000236101
3.265e-06,0.99934,-0.000241097
3.275e-06,0.998637,-0.000241811
3.285e-06,1.00145,-0.000232533
3.295e-06,1.00145,-0.000226823
3.305e-06,1.00004,-0.000235387
3.315e-06,0.99934,-0.000237529
3.325e-06,0.998637,-0.000232533
3.335e-06,1.00286,-0.000234674
3.345e-06,1.00004,-0.000234674
3.355e-06,1.00075,-0.000233246
3.365e-06,1.00004,-0.000234674
3.375e-06,1.00075,-0.000234674
3.385e-06,1.00215,-0.000230392
3.395e-06,0.998637,-0.00023967
3.405e-06,0.997933,-0.000236101
3.415e-06,0.998637,-0.000229678
3.425e-06,1.00004,-0.000228251
3.435e-06,0.99934,-0.00023396
3.445e-06,1.00145,-0.000234674
3.455e-06,0.998637,-0.000232533
3.465e-06,1.00004,-0.000231819
3.475e-06,1.00004,-0.000229678
3.485e-06,0.997933,-0.00023396
3.495e-06,1.00004,-0.000231105
3.505e-06,1.00075,-0.000235387
3.515e-06,1.00075,-0.000236101
3.525e-06,0.99934,-0.000230392
3.535e-06,1.00075,-0.000231819
3.545e-06,0.997933,-0.00023396
3.555e-06,0.997933,-0.000235387
3.565e-06,1.00215,-0.000236101
3.575e-06,1.00004,-0.000232533
3.585e-06,0.998637,-0.000229678
3.595e-06,0.99934,-0.000231819
3.605e-06,1.00075,-0.000238242
3.615e-06,0.997933,-0.000235387
3.625e-06,1.00075,-0.000236815
3.635e-06,0.997229,-0.000231819
3.645e-06,0.998637,-0.000232533
3.655e-06,0.99934,-0.000237529
3.665e-06,1.00004,-0.000236101
3.675e-06,0.997229,-0.000228964
3.685e-06,1.00215,-0.000232533
3.695e-06,0.998637,-0.000237529
3.705e-06,0.998637,-0.000231105
3.715e-06,1.00004,-0.000236815
3.725e-06,0.99934,-0.000233246
3.735e-06,1.00145,-0.000231105
3.745e-06,1.00004,-0.000233246
3.755e-06,1.00004,-0.000241811
3.765e-06,1.00004,-0.000236101
3.775e-06,1.00075,-0.000234674
3.785e-06,0.998637,-0.000229678
3.795e-06,1.00356,-0.000229678
3.805e-06,1.00215,-0.000238956
3.815e-06,0.99934,-0.00024752
3.825e-06,1.00145,-0.000236815
3.835e-06,0.997933,-0.000225396
3.845e-06,1.00004,-0.000223255
3.855e-06,0.998637,-0.00023396
3.865e-06,1.00004,-0.000246093
3.875e-06,1.00004,-0.000243952
3.885e-06,1.00075,-0.00022611
3.895e-06,0.997229,-0.000221114
3.905e-06,0.998637,-0.000229678
3.915e-06,0.998637,-0.000235387
3.925e-06,0.99934,-0.000241097
3.935e-06,1.00075,-0.000236815
3.945e-06,0.997933,-0.000230392
3.955e-06,0.998637,-0.000228251
3.965e-06,0.997933,-0.000238242
3.975e-06,1.00075,-0.000245379
3.985e-06,1.00004,-0.000234674
3.995e-06,1.00075,-0.00023396
4.005e-06,0.998637,-0.000238956
4.015e-06,1.00075,-0.000243952
4.025e-06,0.998637,-0.000238242
4.035e-06,1.00145,-0.000234674
4.045e-06,1.00075,-0.000234674
4.055e-06,0.997933,-0.000236101
4.065e-06,0.99934,-0.000234674
4.075e-06,0.997229,-0.000232533
4.085e-06,0.998637,-0.000233246
4.095e-06,0.99934,-0.000235387
4.105e-06,1.00075,-0.000244665
4.115e-06,1.00004,-0.000238242
4.125e-06,1.00075,-0.000231105
4.135e-06,0.998637,-0.000230392
4.145e-06,1.00215,-0.000227537
4.155e-06,0.996526,-0.000231105
4.165e-06,0.99934,-0.000238242
4.175e-06,1.00004,-0.000234674
4.185e-06,0.99934,-0.000228251
4.195e-06,1.00004,-0.000229678
4.205e-06,0.99934,-0.000231105
4.215e-06,1.00004,-0.00023396
4.225e-06,0.99934,-0.00023396
4.235e-06,0.997933,-0.000232533
4.245e-06,0.998637,-0.000231105
4.255e-06,1.00004,-0.000238956
4.265e-06,0.99934,-0.000237529
4.275e-06,1.00215,-0.000238956
4.285e-06,0.998637,-0.000240383
4.295e-06,0.997933,-0.000240383
4.305e-06,0.997933,-0.000238242
4.315e-06,1.00075,-0.000233246
4.325e-06,0.99934,-0.00023396
4.335e-06,1.00145,-0.000230392
4.345e-06,0.99934,-0.00023396
4.355e-06,1.00145,-0.000233246
4.365e-06,0.998637,-0.000231819
4.375e-06,1.00075,-0.000231819
4.385e-06,0.99934,-0.000234674
4.395e-06,0.998637,-0.000228251
4.405e-06,1.00075,-0.000232533
4.415e-06,0.99934,-0.000230392
4.425e-06,0.99934,-0.000238242
4.435e-06,0.997933,-0.000237529
4.445e-06,0.997933,-0.000235387
4.455e-06,0.99934,-0.000234674
4.465e-06,1.00145,-0.000236101
4.475e-06,0.996526,-0.000236101
4.485e-06,1.00004,-0.000241097
4.495e-06,0.997229,-0.000242524
4.505e-06,0.998637,-0.000241097
4.515e-06,1.00004,-0.000234674
4.525e-06,0.99934,-0.000237529
4.535e-06,1.00075,-0.000237529
4.545e-06,1.00075,-0.000235387
4.555e-06,1.00075,-0.000233246
4.565e-06,1.00145,-0.000238242
4.575e-06,0.99934,-0.000229678
4.585e-06,0.99934,-0.000218973
4.595e-06,0.996526,-0.000231105
4.605e-06,0.997933,-0.000236815
4.615e-06,1.00004,-0.000227537
4.625e-06,0.997933,-0.000224682
4.635e-06,1.00004,-0.000244665
4.645e-06,0.99934,-0.000235387
4.655e-06,1.00004,-0.000230392
4.665e-06,0.997933,-0.00023396
4.675e-06,0.998637,-0.000234674
4.685e-06,1.00145,-0.000236815
4.695e-06,0.99934,-0.000246093
4.705e-06,0.998637,-0.000238956
4.715e-06,0.99934,-0.000234674
4.725e-06,0.99934,-0.000238242
4.735e-06,0.997933,-0.00023967
4.745e-06,0.99934,-0.000233246
4.755e-06,0.99934,-0.00023967
4.765e-06,1.00145,-0.000238956
4.775e-06,0.998637,-0.000231105
4.785e-06,1.00286,-0.000232533
4.795e-06,0.997933,-0.000236815
4.805e-06,0.997933,-0.000229678
4.815e-06,1.00004,-0.000230392
4.825e-06,0.993711,-0.00023396
4.835e-06,0.998637,-0.000229678
4.845e-06,0.998637,-0.000228251
4.855e-06,1.00145,-0.000230392
4.865e-06,0.997933,-0.000235387
4.875e-06,1.00075,-0.00023967
4.885e-06,0.996526,-0.000238242
4.895e-06,0.998637,-0.000231105
4.905e-06,1.00145,-0.000236101
4.915e-06,1.00145,-0.00023967
4.925e-06,1.00145,-0.000231819
4.935e-06,0.99934,-0.000232533
4.945e-06,1.00004,-0.000238242
4.955e-06,1.00286,-0.000237529
4.965e-06,0.99934,-0.000231105
4.975e-06,1.00145,-0.000232533
4.985e-06,0.996526,-0.000228964
4.995e-06,0.998637,-0.000232533
5.005e-06,0.99934,-0.000244665
5.015e-06,1.00075,-0.000238242
5.025e-06,0.99934,-0.000224682
5.035e-06,1.00145,-0.000221828
5.045e-06,0.99934,-0.000238242
5.055e-06,1.00004,-0.000242524
5.065e-06,1.00075,-0.000234674
5.075e-06,0.99934,-0.000228251
5.085e-06,1.00215,-0.000231105
5.095e-06,0.998637,-0.000230392
5.105e-06,1.00004,-0.000238242
5.115e-06,0.998637,-0.000244665
5.125e-06,1.00215,-0.000236815
5.135e-06,1.00004,-0.00022611
5.145e-06,0.998637,-0.000228251
5.155e-06,1.00075,-0.000241811
5.165e-06,0.998637,-0.000236815
5.175e-06,1.00145,-0.000227537
5.185e-06,1.00004,-0.000230392
5.195e-06,0.996526,-0.000235387
5.205e-06,0.997933,-0.000231819
5.215e-06,0.997933,-0.000227537
5.225e-06,1.00145,-0.000238242
5.235e-06,0.99934,-0.000238242
5.245e-06,1.00145,-0.000234674
5.255e-06,1.00004,-0.000234674
5.265e-06,0.99934,-0.000228964
5.275e-06,1.00286,-0.000231105
5.285e-06,0.996526,-0.000236815
5.295e-06,0.99934,-0.000238242
5.305e-06,1.00004,-0.000233246
5.315e-06,1.00075,-0.000231819
5.325e-06,1.00286,-0.000233246
5.335e-06,1.00004,-0.000235387
5.345e-06,1.00215,-0.000236815
5.355e-06,0.99934,-0.00023967
5.365e-06,0.997933,-0.00023396
5.375e-06,1.00215,-0.000236101
5.385e-06,1.00004,-0.000234674
5.395e-06,1.00075,-0.000236815
5.405e-06,0.998637,-0.000231819
5.415e-06,1.00215,-0.000235387
5.425e-06,1.00356,-0.000235387
5.435e-06,1.00075,-0.000232533
5.445e-06,0.998637,-0.00022611
5.455e-06,0.99934,-0.000226823
5.465e-06,0.996526,-0.000236815
5.475e-06,0.998637,-0.000238956
5.485e-06,1.00286,-0.000236815
5.495e-06,0.99934,-0.000235387
5.505e-06,0.998637,-0.000232533
5.515e-06,1.00286,-0.000235387
5.525e-06,1.00145,-0.000244665
5.535e-06,1.00075,-0.00023967
5.545e-06,1.00356,-0.000223255
5.555e-06,0.998637,-0.000228964
5.565e-06,0.99934,-0.000236101
5.575e-06,1.00075,-0.000234674
5.585e-06,0.99934,-0.000232533
5.595e-06,1.00215,-0.000238242
5.605e-06,1.00075,-0.000232533
5.615e-06,0.996526,-0.000230392
5.625e-06,0.996526,-0.000238242
5.635e-06,0.998637,-0.000232533
5.645e-06,1.00215,-0.000228251
5.655e-06,1.00145,-0.000230392
5.665e-06,1.00145,-0.000238242
5.675e-06,1.00004,-0.000232533
5.685e-06,1.00004,-0.000236815
5.695e-06,1.00145,-0.000234674
5.705e-06,0.99934,-0.000226823
5.715e-06,1.00004,-0.000236815
5.725e-06,1.00004,-0.000241097
5.735e-06,0.995822,-0.000235387
5.745e-06,0.997933,-0.000230392
5.755e-06,1.00004,-0.000228251
5.765e-06,0.998637,-0.000231105
5.775e-06,0.996526,-0.000232533
5.785e-06,0.997229,-0.000236101
5.795e-06,0.995822,-0.000245379
5.805e-06,0.985268,-0.000238956
5.815e-06,0.912798,-0.000232533
5.825e-06,0.811481,-0.000186143
5.835e-06,0.714385,-4.26931e-05
5.845e-06,0.612363,0.000155711
5.855e-06,0.512453,0.000356256
5.865e-06,0.415357,0.000575356
5.875e-06,0.314743,0.000781611
5.885e-06,0.215536,0.000951467
5.895e-06,0.113515,0.00109349
5.905e-06,0.0269732,0.0012298
5.915e-06,0.000236607,0.00136041
5.925e-06,-0.00328136,0.00145247
5.935e-06,0.00164379,0.00142963
5.945e-06,0.00305098,0.001339
5.955e-06,0.000236607,0.00123052
5.965e-06,0.00234739,0.00110491
5.975e-06,0.00445817,0.000964313
5.985e-06,0.00234739,0.000861543
5.995e-06,0.00445817,0.000782324
6.005e-06,0.00516177,0.000708101
6.015e-06,0.00445817,0.00063816
6.025e-06,0.00445817,0.000568933
6.035e-06,0.00516177,0.000506843
6.045e-06,0.00305098,0.000454744
6.055e-06,0.00586536,0.000408354
6.065e-06,0.00516177,0.00037267
6.075e-06,0.00586536,0.000334131
6.085e-06,0.00305098,0.000299161
6.095e-06,0.00656895,0.000276323
6.105e-06,0.0530062,0.000249917
6.115e-06,0.334444,0.000214946
6.125e-06,0.737603,1.93973e-05
6.135e-06,1.14428,-0.000574387
6.145e-06,1.54674,-0.00138513
6.155e-06,1.95271,-0.00221728
6.165e-06,2.35235,-0.00306514
6.175e-06,2.74918,-0.0038716
6.185e-06,3.14882,-0.00452248
6.195e-06,3.55198,-0.00505061
6.205e-06,3.90448,-0.00554091
6.215e-06,4.02972,-0.00600194
6.225e-06,4.01424,-0.0062917
6.235e-06,4.00087,-0.00624031
6.245e-06,4.00087,-0.00592986
6.255e-06,3.99524,-0.00553234
6.265e-06,3.98891,-0.00506845
6.275e-06,3.9868,-0.00460027
6.285e-06,3.9861,-0.0042156
6.295e-06,3.98117,-0.00393084
6.305e-06,3.98117,-0.00368747
6.315e-06,3.97976,-0.00344482
6.325e-06,3.97976,-0.00321287
6.335e-06,3.97765,-0.00301233
6.345e-06,3.97836,-0.00284747
6.355e-06,3.97976,-0.00272828
6.365e-06,3.97836,-0.00262622
6.375e-06,3.97695,-0.00253273
6.385e-06,3.98047,-0.00245066
6.395e-06,3.97976,-0.00238072
6.405e-06,3.97976,-0.00231363
6.415e-06,3.97906,-0.00226082
6.425e-06,3.97906,-0.00223156
6.435e-06,3.97906,-0.00220943
6.445e-06,3.97906,-0.00217375
6.455e-06,3.97836,-0.00213093
6.465e-06,3.98117,-0.00211166
6.475e-06,3.98258,-0.00210452
