
Time,Voltage,Current
5e-09,-0.00178659,-1.32815e-06
1.5e-08,-0.000378314,-1.04629e-06
2.5e-08,0.00102996,-1.18722e-06
3.5e-08,-0.000378314,-6.93965e-07
4.5e-08,-0.00249072,2.92547e-07
5.5e-08,-0.003899,5.03943e-07
6.5e-08,-0.000378314,7.85804e-07
7.5e-08,-0.00178659,8.56269e-07
8.5e-08,-0.00178659,1.27906e-06
9.5e-08,0.00102996,1.06766e-06
1.05e-07,0.0017341,8.56269e-07
1.15e-07,0.0151127,5.03943e-07
1.25e-07,0.178472,-6.235e-07
1.35e-07,0.455902,-3.33193e-05
1.45e-07,0.762906,-0.000225619
1.55e-07,1.06076,-0.000644393
1.65e-07,1.35227,-0.00111278
1.75e-07,1.63463,-0.00115069
1.85e-07,1.91558,-0.00115069
1.95e-07,2.19794,-0.00115069
2.05e-07,2.48241,-0.00115069
2.15e-07,2.75491,-0.00115069
2.25e-07,2.88306,-0.00115069
2.35e-07,2.89151,-0.00115069
2.45e-07,2.88447,-0.00115069
2.55e-07,2.87602,-0.00115069
2.65e-07,2.87461,-0.00115069
2.75e-07,2.88236,-0.00115069
2.85e-07,2.88165,-0.00115069
2.95e-07,2.88517,-0.00115069
3.05e-07,2.8894,-0.00115069
3.15e-07,2.89433,-0.00115069
3.25e-07,2.89151,-0.00115069
3.35e-07,2.89081,-0.00115069
3.45e-07,2.89081,-0.00115069
3.55e-07,2.89151,-0.00115069
3.65e-07,2.8901,-0.00115069
3.75e-07,2.88799,-0.00115069
3.85e-07,2.8894,-0.00115069
3.95e-07,2.89151,-0.00115069
4.05e-07,2.88799,-0.00115069
4.15e-07,2.8732,-0.00115069
4.25e-07,2.68168,-0.00115069
4.35e-07,2.34792,-0.000936472
4.45e-07,1.99515,-0.000296154
4.55e-07,1.64308,0.000187519
4.65e-07,1.3065,0.000371996
4.75e-07,0.969218,0.000440841
4.85e-07,0.631232,0.00101767
4.95e-07,0.300992,0.00115423
5.05e-07,-0.0384017,0.00115423
5.15e-07,-0.354559,0.00115423
5.25e-07,-0.505948,0.00115423
5.35e-07,-0.517919,0.00115423
5.45e-07,-0.502428,0.00115423
5.55e-07,-0.488345,0.00115423
5.65e-07,-0.48412,0.00115423
5.75e-07,-0.493274,0.00115423
5.85e-07,-0.496795,0.00115423
5.95e-07,-0.50102,0.00115423
6.05e-07,-0.503836,0.00115423
6.15e-07,-0.503836,0.00115423
6.25e-07,-0.501724,0.00115423
6.35e-07,-0.498203,0.00115423
6.45e-07,-0.500315,0.00115423
6.55e-07,-0.503132,0.00115423
6.65e-07,-0.496795,0.00103789
6.75e-07,-0.497499,0.000741798
6.85e-07,-0.493978,0.000516802
6.95e-07,-0.493274,0.000352407
7.05e-07,-0.495386,0.000235576
7.15e-07,-0.494682,0.000157219
7.25e-07,-0.494682,0.000109655
7.35e-07,-0.496091,8.32301e-05
7.45e-07,-0.496795,7.20261e-05
7.55e-07,-0.494682,7.18147e-05
7.65e-07,-0.496091,7.89317e-05
7.75e-07,-0.493978,8.75284e-05
7.85e-07,-0.493978,9.71117e-05
7.95e-07,-0.497499,0.000107047
8.05e-07,-0.497499,0.000114094
8.15e-07,-0.496091,0.000122197
8.25e-07,-0.494682,0.0001272
8.35e-07,-0.496795,0.000130935
8.45e-07,-0.493274,0.00013171
8.55e-07,-0.496091,0.000130724
8.65e-07,-0.494682,0.000128187
8.75e-07,-0.493978,0.000124734
8.85e-07,-0.497499,0.000120788
8.95e-07,-0.498203,0.000116631
9.05e-07,-0.496091,0.000111909
9.15e-07,-0.496091,0.0001074
9.25e-07,-0.498907,0.000102678
9.35e-07,-0.496795,9.79573e-05
9.45e-07,-0.496795,9.45045e-05
9.55e-07,-0.497499,9.00652e-05
9.65e-07,-0.498907,8.49212e-05
9.75e-07,-0.498203,8.21026e-05
9.85e-07,-0.498203,7.90726e-05
9.95e-07,-0.498203,7.69587e-05
1.005e-06,-0.499611,7.44924e-05
1.015e-06,-0.497499,7.13919e-05
1.025e-06,-0.496795,6.98417e-05
1.035e-06,-0.500315,6.66707e-05
1.045e-06,-0.497499,6.31475e-05
1.055e-06,-0.499611,6.1104e-05
1.065e-06,-0.498203,6.0047e-05
1.075e-06,-0.498203,5.86377e-05
1.085e-06,-0.50102,5.78626e-05
1.095e-06,-0.499611,5.64533e-05
1.105e-06,-0.498203,5.55373e-05
1.115e-06,-0.498203,5.49735e-05
1.125e-06,-0.497499,5.46212e-05
1.135e-06,-0.499611,5.34938e-05
1.145e-06,-0.497499,5.23663e-05
1.155e-06,-0.498907,5.07456e-05
1.165e-06,-0.498203,4.97591e-05
1.175e-06,-0.498907,4.89135e-05
1.185e-06,-0.496795,4.7927e-05
1.195e-06,-0.496795,4.70814e-05
1.205e-06,-0.50102,4.56017e-05
1.215e-06,-0.500315,4.44038e-05
1.225e-06,-0.498907,4.29944e-05
1.235e-06,-0.500315,4.23603e-05
1.245e-06,-0.499611,4.14442e-05
1.255e-06,-0.497499,4.07396e-05
1.265e-06,-0.501724,3.97531e-05
1.275e-06,-0.498907,3.82733e-05
1.285e-06,-0.499611,3.72868e-05
1.295e-06,-0.499611,3.65821e-05
1.305e-06,-0.496795,3.61593e-05
1.315e-06,-0.498203,3.53137e-05
1.325e-06,-0.50102,3.56661e-05
1.335e-06,-0.501724,3.41158e-05
1.345e-06,-0.499611,3.2777e-05
1.355e-06,-0.499611,3.21428e-05
1.365e-06,-0.493978,3.16496e-05
1.375e-06,-0.498907,3.13677e-05
1.385e-06,-0.497499,3.04516e-05
1.395e-06,-0.50102,2.9747e-05
1.405e-06,-0.50102,2.94651e-05
1.415e-06,-0.497499,2.95356e-05
1.425e-06,-0.497499,3.03107e-05
1.435e-06,-0.500315,3.10858e-05
1.445e-06,-0.500315,3.0663e-05
1.455e-06,-0.501724,2.99584e-05
1.465e-06,-0.498203,2.92537e-05
1.475e-06,-0.498203,2.86196e-05
1.485e-06,-0.497499,2.81968e-05
1.495e-06,-0.498907,2.69989e-05
1.505e-06,-0.498203,2.64351e-05
1.515e-06,-0.500315,2.64351e-05
1.525e-06,-0.498907,2.58714e-05
1.535e-06,-0.50102,2.55191e-05
1.545e-06,-0.498203,2.48849e-05
1.555e-06,-0.501724,2.4744e-05
1.565e-06,-0.500315,2.52372e-05
1.575e-06,-0.501724,2.48849e-05
1.585e-06,-0.502428,2.46735e-05
1.595e-06,-0.500315,2.50258e-05
1.605e-06,-0.498907,2.48849e-05
1.615e-06,-0.498203,2.42507e-05
1.625e-06,-0.501724,2.30528e-05
1.635e-06,-0.498203,2.22777e-05
1.645e-06,-0.497499,2.17844e-05
1.655e-06,-0.502428,2.15026e-05
1.665e-06,-0.500315,2.1714e-05
1.675e-06,-0.497499,2.22777e-05
1.685e-06,-0.50102,2.18549e-05
1.695e-06,-0.495386,2.03047e-05
1.705e-06,-0.498907,1.96e-05
1.715e-06,-0.50102,1.91772e-05
1.725e-06,-0.499611,1.91068e-05
1.735e-06,-0.499611,2.00228e-05
1.745e-06,-0.498203,2.04456e-05
1.755e-06,-0.50102,2.00933e-05
1.765e-06,-0.499611,1.88954e-05
1.775e-06,-0.500315,1.81202e-05
1.785e-06,-0.499611,1.74156e-05
1.795e-06,-0.50102,1.76974e-05
1.805e-06,-0.50102,1.81907e-05
1.815e-06,-0.50102,1.86135e-05
1.825e-06,-0.498907,1.76974e-05
1.835e-06,-0.499611,1.71337e-05
1.845e-06,-0.500315,1.62177e-05
1.855e-06,-0.501724,1.68519e-05
1.865e-06,-0.502428,1.69223e-05
1.875e-06,-0.50102,1.72747e-05
1.885e-06,-0.501724,1.72747e-05
1.895e-06,-0.498203,1.64291e-05
1.905e-06,-0.50102,1.58654e-05
1.915e-06,-0.501724,1.5654e-05
1.925e-06,-0.497499,1.42447e-05
1.935e-06,-0.500315,1.4456e-05
1.945e-06,-0.499611,1.5654e-05
1.955e-06,-0.500315,1.53721e-05
1.965e-06,-0.499611,1.63586e-05
1.975e-06,-0.498907,1.64995e-05
1.985e-06,-0.50102,1.58654e-05
1.995e-06,-0.499611,1.59358e-05
2.005e-06,-0.501724,1.55835e-05
2.015e-06,-0.503132,1.53016e-05
2.025e-06,-0.501724,1.48788e-05
2.035e-06,-0.500315,1.42447e-05
2.045e-06,-0.502428,1.43856e-05
2.055e-06,-0.498907,1.45265e-05
2.065e-06,-0.498203,1.48788e-05
2.075e-06,-0.500315,1.53016e-05
2.085e-06,-0.50102,1.50902e-05
2.095e-06,-0.502428,1.50198e-05
2.105e-06,-0.50102,1.53016e-05
2.115e-06,-0.499611,1.4597e-05
2.125e-06,-0.50102,1.38219e-05
2.135e-06,-0.500315,1.34695e-05
2.145e-06,-0.498907,1.29058e-05
2.155e-06,-0.498907,1.24126e-05
2.165e-06,-0.500315,1.28354e-05
2.175e-06,-0.502428,1.29763e-05
2.185e-06,-0.50102,1.28354e-05
2.195e-06,-0.500315,1.30467e-05
2.205e-06,-0.502428,1.36105e-05
2.215e-06,-0.499611,1.27649e-05
2.225e-06,-0.499611,1.14965e-05
2.235e-06,-0.500315,1.06509e-05
2.245e-06,-0.499611,1.04395e-05
2.255e-06,-0.498907,1.02281e-05
2.265e-06,-0.499611,9.87581e-06
2.275e-06,-0.496795,1.00872e-05
2.285e-06,-0.498907,1.05805e-05
2.295e-06,-0.502428,1.12851e-05
2.305e-06,-0.50102,1.1567e-05
2.315e-06,-0.498907,1.22012e-05
2.325e-06,-0.499611,1.23421e-05
2.335e-06,-0.500315,1.1567e-05
2.345e-06,-0.50102,1.09328e-05
2.355e-06,-0.502428,1.05805e-05
2.365e-06,-0.50102,1.07919e-05
2.375e-06,-0.498907,1.1567e-05
2.385e-06,-0.50454,1.12851e-05
2.395e-06,-0.50102,1.1567e-05
2.405e-06,-0.499611,1.16374e-05
2.415e-06,-0.499611,1.11442e-05
2.425e-06,-0.500315,1.05805e-05
2.435e-06,-0.498907,9.94628e-06
2.445e-06,-0.499611,9.52349e-06
2.455e-06,-0.498907,1.00872e-05
2.465e-06,-0.50102,1.01577e-05
2.475e-06,-0.498907,9.80535e-06
2.485e-06,-0.498907,9.87581e-06
2.495e-06,-0.497499,1.03691e-05
2.505e-06,-0.502428,1.12851e-05
2.515e-06,-0.500315,1.17784e-05
2.525e-06,-0.50102,1.17784e-05
2.535e-06,-0.501724,1.17784e-05
2.545e-06,-0.503132,1.12147e-05
2.555e-06,-0.50102,1.05805e-05
2.565e-06,-0.501724,1.02281e-05
2.575e-06,-0.502428,1.00872e-05
2.585e-06,-0.499611,9.66442e-06
2.595e-06,-0.501724,9.38256e-06
2.605e-06,-0.498907,9.87581e-06
2.615e-06,-0.502428,9.45302e-06
2.625e-06,-0.498907,9.38256e-06
2.635e-06,-0.50102,8.39604e-06
2.645e-06,-0.498907,8.25511e-06
2.655e-06,-0.500315,8.46651e-06
2.665e-06,-0.50102,8.32558e-06
2.675e-06,-0.500315,8.6779e-06
2.685e-06,-0.499611,9.80535e-06
2.695e-06,-0.503836,9.66442e-06
2.705e-06,-0.50102,9.45302e-06
2.715e-06,-0.500315,9.03023e-06
2.725e-06,-0.50102,9.17116e-06
2.735e-06,-0.501724,8.95977e-06
2.745e-06,-0.501724,8.81883e-06
2.755e-06,-0.498203,7.97325e-06
2.765e-06,-0.498907,7.55046e-06
2.775e-06,-0.499611,7.62093e-06
2.785e-06,-0.499611,7.97325e-06
2.795e-06,-0.498907,8.39604e-06
2.805e-06,-0.50102,8.81883e-06
2.815e-06,-0.502428,8.32558e-06
2.825e-06,-0.500315,8.32558e-06
2.835e-06,-0.499611,8.6779e-06
2.845e-06,-0.502428,8.39604e-06
2.855e-06,-0.501724,8.39604e-06
2.865e-06,-0.501724,8.6779e-06
2.875e-06,-0.501724,8.81883e-06
2.885e-06,-0.500315,8.18465e-06
2.895e-06,-0.499611,7.76186e-06
2.905e-06,-0.50102,6.70488e-06
2.915e-06,-0.50102,6.98674e-06
2.925e-06,-0.500315,6.70488e-06
2.935e-06,-0.50102,6.07069e-06
2.945e-06,-0.499611,5.92976e-06
2.955e-06,-0.498907,6.56395e-06
2.965e-06,-0.500315,5.8593e-06
2.975e-06,-0.501724,6.28209e-06
2.985e-06,-0.499611,6.91627e-06
2.995e-06,-0.50102,7.48e-06
3.005e-06,-0.502428,7.83232e-06
3.015e-06,-0.500315,7.76186e-06
3.025e-06,-0.501724,8.39604e-06
3.035e-06,-0.499611,8.25511e-06
3.045e-06,-0.498203,7.62093e-06
3.055e-06,-0.500315,7.62093e-06
3.065e-06,-0.498907,6.98674e-06
3.075e-06,-0.498203,6.35255e-06
3.085e-06,-0.50102,6.21162e-06
3.095e-06,-0.498203,6.00023e-06
3.105e-06,-0.498907,5.6479e-06
3.115e-06,-0.499611,6.14116e-06
3.125e-06,-0.500315,6.63441e-06
3.135e-06,-0.498907,6.49348e-06
3.145e-06,-0.498203,5.57744e-06
3.155e-06,-0.499611,5.29558e-06
3.165e-06,-0.498907,4.66139e-06
3.175e-06,-0.498907,4.94325e-06
3.185e-06,-0.503132,5.43651e-06
3.195e-06,-0.499611,6.63441e-06
3.205e-06,-0.498907,7.19814e-06
3.215e-06,-0.50102,7.97325e-06
3.225e-06,-0.499611,8.18465e-06
3.235e-06,-0.499611,7.83232e-06
3.245e-06,-0.500315,7.05721e-06
3.255e-06,-0.502428,6.35255e-06
3.265e-06,-0.499611,6.21162e-06
3.275e-06,-0.50102,6.49348e-06
3.285e-06,-0.500315,6.42302e-06
3.295e-06,-0.498907,6.42302e-06
3.305e-06,-0.50102,5.78883e-06
3.315e-06,-0.500315,5.78883e-06
3.325e-06,-0.499611,5.92976e-06
3.335e-06,-0.500315,6.14116e-06
3.345e-06,-0.500315,6.91627e-06
3.355e-06,-0.498203,7.05721e-06
3.365e-06,-0.499611,7.90279e-06
3.375e-06,-0.50102,7.76186e-06
3.385e-06,-0.497499,6.98674e-06
3.395e-06,-0.498203,6.56395e-06
3.405e-06,-0.500315,5.78883e-06
3.415e-06,-0.498203,4.37953e-06
3.425e-06,-0.501724,5.15465e-06
3.435e-06,-0.499611,5.29558e-06
3.445e-06,-0.50102,5.29558e-06
3.455e-06,-0.501724,5.08418e-06
3.465e-06,-0.499611,4.44999e-06
3.475e-06,-0.50102,4.52046e-06
3.485e-06,-0.502428,4.37953e-06
3.495e-06,-0.50102,4.59092e-06
3.505e-06,-0.501724,4.44999e-06
3.515e-06,-0.503132,4.0272e-06
3.525e-06,-0.499611,5.01371e-06
3.535e-06,-0.503132,6.07069e-06
3.545e-06,-0.50102,6.56395e-06
3.555e-06,-0.499611,6.56395e-06
3.565e-06,-0.498907,7.69139e-06
3.575e-06,-0.499611,7.40953e-06
3.585e-06,-0.50102,6.56395e-06
3.595e-06,-0.503132,5.8593e-06
3.605e-06,-0.497499,5.50697e-06
3.615e-06,-0.50102,4.94325e-06
3.625e-06,-0.499611,4.66139e-06
3.635e-06,-0.497499,5.29558e-06
3.645e-06,-0.499611,5.50697e-06
3.655e-06,-0.50102,5.71837e-06
3.665e-06,-0.499611,6.63441e-06
3.675e-06,-0.501724,7.05721e-06
3.685e-06,-0.499611,6.21162e-06
3.695e-06,-0.501724,6.07069e-06
3.705e-06,-0.500315,5.01371e-06
3.715e-06,-0.501724,5.22511e-06
3.725e-06,-0.498203,4.94325e-06
3.735e-06,-0.503132,4.94325e-06
3.745e-06,-0.498907,5.22511e-06
3.755e-06,-0.50102,4.80232e-06
3.765e-06,-0.499611,4.2386e-06
3.775e-06,-0.502428,3.81581e-06
3.785e-06,-0.502428,3.67488e-06
3.795e-06,-0.502428,4.09767e-06
3.805e-06,-0.501724,4.44999e-06
3.815e-06,-0.503132,4.73185e-06
3.825e-06,-0.501724,5.08418e-06
3.835e-06,-0.50102,4.2386e-06
3.845e-06,-0.503836,3.74534e-06
3.855e-06,-0.501724,4.09767e-06
3.865e-06,-0.50102,4.16813e-06
3.875e-06,-0.498907,4.94325e-06
3.885e-06,-0.501724,5.6479e-06
3.895e-06,-0.499611,5.43651e-06
3.905e-06,-0.502428,6.49348e-06
3.915e-06,-0.499611,6.63441e-06
3.925e-06,-0.499611,6.70488e-06
3.935e-06,-0.498203,6.35255e-06
3.945e-06,-0.50102,6.42302e-06
3.955e-06,-0.502428,5.50697e-06
3.965e-06,-0.502428,4.73185e-06
3.975e-06,-0.500315,4.37953e-06
3.985e-06,-0.500315,4.0272e-06
3.995e-06,-0.50102,3.53395e-06
4.005e-06,-0.500315,3.46348e-06
4.015e-06,-0.498203,2.97022e-06
4.025e-06,-0.498907,3.81581e-06
4.035e-06,-0.498203,5.01371e-06
4.045e-06,-0.499611,5.22511e-06
4.055e-06,-0.499611,5.29558e-06
4.065e-06,-0.50102,5.22511e-06
4.075e-06,-0.501724,5.36604e-06
4.085e-06,-0.50102,6.14116e-06
4.095e-06,-0.502428,6.00023e-06
4.105e-06,-0.501724,5.71837e-06
4.115e-06,-0.500315,4.87278e-06
4.125e-06,-0.500315,4.73185e-06
4.135e-06,-0.505244,5.22511e-06
4.145e-06,-0.50102,4.80232e-06
4.155e-06,-0.501724,4.94325e-06
4.165e-06,-0.498907,4.94325e-06
4.175e-06,-0.499611,4.59092e-06
4.185e-06,-0.50102,4.94325e-06
4.195e-06,-0.498907,5.08418e-06
4.205e-06,-0.502428,4.37953e-06
4.215e-06,-0.497499,4.52046e-06
4.225e-06,-0.500315,4.52046e-06
4.235e-06,-0.501724,4.66139e-06
4.245e-06,-0.503132,4.52046e-06
4.255e-06,-0.499611,4.59092e-06
4.265e-06,-0.502428,3.88627e-06
4.275e-06,-0.499611,3.74534e-06
4.285e-06,-0.497499,3.74534e-06
4.295e-06,-0.499611,3.88627e-06
4.305e-06,-0.50102,4.0272e-06
4.315e-06,-0.499611,4.66139e-06
4.325e-06,-0.498203,4.80232e-06
4.335e-06,-0.501724,5.01371e-06
4.345e-06,-0.498907,5.29558e-06
4.355e-06,-0.500315,5.43651e-06
4.365e-06,-0.501724,5.43651e-06
4.375e-06,-0.501724,5.29558e-06
4.385e-06,-0.501724,5.29558e-06
4.395e-06,-0.500315,5.57744e-06
4.405e-06,-0.50102,4.59092e-06
4.415e-06,-0.50102,4.44999e-06
4.425e-06,-0.498203,3.88627e-06
4.435e-06,-0.50102,3.46348e-06
4.445e-06,-0.499611,3.46348e-06
4.455e-06,-0.503132,2.68836e-06
4.465e-06,-0.494682,1.91325e-06
4.475e-06,-0.502428,2.05418e-06
4.485e-06,-0.501724,2.19511e-06
4.495e-06,-0.500315,2.19511e-06
4.505e-06,-0.499611,2.47697e-06
4.515e-06,-0.500315,2.75883e-06
4.525e-06,-0.50102,3.25209e-06
4.535e-06,-0.500315,4.66139e-06
4.545e-06,-0.500315,4.2386e-06
4.555e-06,-0.498907,4.2386e-06
4.565e-06,-0.50102,4.80232e-06
4.575e-06,-0.500315,5.01371e-06
4.585e-06,-0.501724,4.80232e-06
4.595e-06,-0.500315,4.52046e-06
4.605e-06,-0.503132,4.30906e-06
4.615e-06,-0.501724,4.52046e-06
4.625e-06,-0.50102,4.87278e-06
4.635e-06,-0.499611,4.87278e-06
4.645e-06,-0.500315,4.09767e-06
4.655e-06,-0.500315,2.89976e-06
4.665e-06,-0.498907,1.27906e-06
4.675e-06,-0.50102,1.27906e-06
4.685e-06,-0.498907,1.70185e-06
4.695e-06,-0.50102,2.26557e-06
4.705e-06,-0.501724,2.19511e-06
4.715e-06,-0.499611,2.26557e-06
4.725e-06,-0.498907,2.75883e-06
4.735e-06,-0.500315,3.04069e-06
4.745e-06,-0.50102,3.11115e-06
4.755e-06,-0.499611,3.67488e-06
4.765e-06,-0.500315,4.73185e-06
4.775e-06,-0.503132,4.80232e-06
4.785e-06,-0.500315,4.94325e-06
4.795e-06,-0.502428,5.43651e-06
4.805e-06,-0.503132,5.43651e-06
4.815e-06,-0.50102,4.52046e-06
4.825e-06,-0.499611,4.0272e-06
4.835e-06,-0.499611,3.25209e-06
4.845e-06,-0.498203,2.75883e-06
4.855e-06,-0.501724,2.68836e-06
4.865e-06,-0.500315,2.68836e-06
4.875e-06,-0.500315,3.60441e-06
4.885e-06,-0.500315,4.09767e-06
4.895e-06,-0.499611,4.30906e-06
4.905e-06,-0.501724,4.66139e-06
4.915e-06,-0.499611,4.2386e-06
4.925e-06,-0.502428,3.67488e-06
4.935e-06,-0.502428,4.73185e-06
4.945e-06,-0.501724,5.01371e-06
4.955e-06,-0.50102,4.2386e-06
4.965e-06,-0.499611,4.37953e-06
4.975e-06,-0.497499,4.0272e-06
4.985e-06,-0.499611,3.88627e-06
4.995e-06,-0.499611,3.46348e-06
5.005e-06,-0.500315,3.25209e-06
5.015e-06,-0.498203,3.32255e-06
5.025e-06,-0.498203,3.39302e-06
5.035e-06,-0.50102,3.60441e-06
5.045e-06,-0.499611,4.09767e-06
5.055e-06,-0.499611,4.09767e-06
5.065e-06,-0.498907,4.09767e-06
5.075e-06,-0.499611,3.39302e-06
5.085e-06,-0.500315,3.25209e-06
5.095e-06,-0.499611,3.25209e-06
5.105e-06,-0.498907,3.88627e-06
5.115e-06,-0.498907,4.66139e-06
5.125e-06,-0.501724,4.94325e-06
5.135e-06,-0.502428,4.59092e-06
5.145e-06,-0.50102,4.59092e-06
5.155e-06,-0.498203,4.87278e-06
5.165e-06,-0.500315,4.16813e-06
5.175e-06,-0.50102,3.11115e-06
5.185e-06,-0.500315,3.25209e-06
5.195e-06,-0.498203,2.54743e-06
5.205e-06,-0.503132,2.54743e-06
5.215e-06,-0.498907,2.33604e-06
5.225e-06,-0.499611,1.91325e-06
5.235e-06,-0.499611,1.91325e-06
5.245e-06,-0.497499,1.77232e-06
5.255e-06,-0.501724,2.89976e-06
5.265e-06,-0.50102,3.11115e-06
5.275e-06,-0.498907,3.60441e-06
5.285e-06,-0.499611,3.60441e-06
5.295e-06,-0.500315,3.53395e-06
5.305e-06,-0.497499,3.39302e-06
5.315e-06,-0.501724,3.67488e-06
5.325e-06,-0.502428,3.53395e-06
5.335e-06,-0.499611,3.60441e-06
5.345e-06,-0.499611,3.39302e-06
5.355e-06,-0.50102,3.88627e-06
5.365e-06,-0.500315,3.88627e-06
5.375e-06,-0.499611,3.81581e-06
5.385e-06,-0.501724,3.39302e-06
5.395e-06,-0.498907,3.18162e-06
5.405e-06,-0.502428,3.53395e-06
5.415e-06,-0.497499,3.95674e-06
5.425e-06,-0.499611,3.74534e-06
5.435e-06,-0.503132,4.16813e-06
5.445e-06,-0.501724,3.53395e-06
5.455e-06,-0.50102,3.81581e-06
5.465e-06,-0.500315,3.18162e-06
5.475e-06,-0.501724,2.54743e-06
5.485e-06,-0.502428,2.68836e-06
5.495e-06,-0.499611,2.82929e-06
5.505e-06,-0.50102,2.68836e-06
5.515e-06,-0.499611,2.75883e-06
5.525e-06,-0.469333,3.39302e-06
5.535e-06,-0.420748,-2.31466e-06
5.545e-06,-0.366529,-3.81814e-05
5.555e-06,-0.313015,-0.000118653
5.565e-06,-0.263725,-0.000236259
5.575e-06,-0.21514,-0.000374864
5.585e-06,-0.169371,-0.000520868
5.595e-06,-0.120082,-0.000664265
5.605e-06,-0.0693837,-0.000797514
5.615e-06,-0.0215024,-0.000917657
5.625e-06,0.00243823,-0.00102124
5.635e-06,0.00102996,-0.00110277
5.645e-06,0.00102996,-0.00113737
5.655e-06,-0.003899,-0.0011113
5.665e-06,-0.003899,-0.00103583
5.675e-06,-0.00249072,-0.000924211
5.685e-06,-0.00319486,-0.000793709
5.695e-06,-0.00108245,-0.000656654
5.705e-06,-0.00249072,-0.000523405
5.715e-06,0.000325823,-0.000398822
5.725e-06,-0.00319486,-0.00028636
5.735e-06,0.00102996,-0.000190245
5.745e-06,-0.00319486,-0.000111183
5.755e-06,-0.000378314,-4.88217e-05
5.765e-06,-0.000378314,-1.61001e-06
5.775e-06,-0.00460313,3.15086e-05
5.785e-06,-0.00249072,5.27186e-05
5.795e-06,-0.00108245,6.46273e-05
5.805e-06,0.000325823,6.83619e-05
5.815e-06,0.0122961,6.6107e-05
5.825e-06,0.178472,5.899e-05
5.835e-06,0.460127,1.53721e-05
5.845e-06,0.761498,-0.000202506
5.855e-06,1.06076,-0.00067272
5.865e-06,1.35438,-0.00115069
5.875e-06,1.63815,-0.00115069
5.885e-06,1.91769,-0.00115069
5.895e-06,2.20357,-0.00115069
5.905e-06,2.49086,-0.00115069
5.915e-06,2.76265,-0.00115069
5.925e-06,2.89433,-0.00115069
5.935e-06,2.90137,-0.00115069
5.945e-06,2.88869,-0.00115069
5.955e-06,2.88095,-0.00115069
5.965e-06,2.88024,-0.00115069
5.975e-06,2.88658,-0.00115069
5.985e-06,2.89151,-0.00115069
5.995e-06,2.89433,-0.00115069
6.005e-06,2.89222,-0.00115069
6.015e-06,2.89151,-0.00115069
6.025e-06,2.88799,-0.00115069
6.035e-06,2.89222,-0.00115069
6.045e-06,2.89151,-0.00115069
6.055e-06,2.89222,-0.00115069
6.065e-06,2.8901,-0.00115069
6.075e-06,2.88729,-0.000905326
6.085e-06,2.88588,0.000140871
6.095e-06,2.88588,0.000960663
6.105e-06,2.88517,0.00115423
6.115e-06,2.86898,0.00115423
6.125e-06,2.67957,0.00113239
6.135e-06,2.34721,0.000801129
6.145e-06,1.98951,0.000335777
6.155e-06,1.63674,0.000218382
6.165e-06,1.29664,0.000792885
6.175e-06,0.95936,0.00115423
6.185e-06,0.624895,0.00115423
6.195e-06,0.294655,0.00115423
6.205e-06,-0.0440348,0.00115423
6.215e-06,-0.35808,0.00115423
6.225e-06,-0.508765,0.00115423
6.235e-06,-0.518623,0.00115423
6.245e-06,-0.507357,0.00115423
6.255e-06,-0.489753,0.00115423
6.265e-06,-0.485529,0.00115423
6.275e-06,-0.490457,0.00115423
6.285e-06,-0.496795,0.00115423
6.295e-06,-0.496795,0.00115423
6.305e-06,-0.500315,0.00115423
6.315e-06,-0.50102,0.00115423
6.325e-06,-0.50102,0.00115423
6.335e-06,-0.500315,0.00115423
6.345e-06,-0.494682,0.00115423
