
Time,Voltage,Current
5e-09,-0.00249072,7.85804e-07
1.5e-08,-0.00108245,4.33478e-07
2.5e-08,-0.000378314,1.20859e-06
3.5e-08,-0.00249072,1.20859e-06
4.5e-08,-0.000378314,3.63012e-07
5.5e-08,-0.00178659,1.51617e-07
6.5e-08,-0.003899,1.51617e-07
7.5e-08,-0.00108245,1.06865e-08
8.5e-08,-0.000378314,-1.30244e-07
9.5e-08,0.00102996,8.11517e-08
1.05e-07,-0.00249072,9.26734e-07
1.15e-07,0.0158168,1.34953e-06
1.25e-07,0.212975,6.44873e-07
1.35e-07,0.548144,-3.81814e-05
1.45e-07,0.915704,-0.000269448
1.55e-07,1.28115,-0.000771865
1.65e-07,1.62688,-0.00115069
1.75e-07,1.96487,-0.00115069
1.85e-07,2.30637,-0.00115069
1.95e-07,2.64929,-0.00115069
2.05e-07,2.99291,-0.00115069
2.15e-07,3.32174,-0.00115069
2.25e-07,3.47665,-0.00115069
2.35e-07,3.48932,-0.00115069
2.45e-07,3.47524,-0.00115069
2.55e-07,3.46468,-0.00115069
2.65e-07,3.46679,-0.00115069
2.75e-07,3.46961,-0.00115069
2.85e-07,3.47876,-0.00115069
2.95e-07,3.48439,-0.00115069
3.05e-07,3.48651,-0.00115069
3.15e-07,3.48932,-0.00115069
3.25e-07,3.49003,-0.00115069
3.35e-07,3.49214,-0.00115069
3.45e-07,3.49073,-0.00115069
3.55e-07,3.49073,-0.00115069
3.65e-07,3.49425,-0.00115069
3.75e-07,3.49355,-0.00115069
3.85e-07,3.49144,-0.00115069
3.95e-07,3.49073,-0.00115069
4.05e-07,3.49073,-0.00115069
4.15e-07,3.46749,-0.00115069
4.25e-07,3.21189,-0.00115069
4.35e-07,2.78237,-0.00115069
4.45e-07,2.30919,-0.00115069
4.55e-07,1.84024,-0.00115069
4.65e-07,1.38466,-0.00115069
4.75e-07,0.942461,3.89075e-05
4.85e-07,0.501671,0.00106122
4.95e-07,0.0601774,0.00115423
5.05e-07,-0.384837,0.00115423
5.15e-07,-0.803094,0.00115423
5.25e-07,-1.00377,0.00115423
5.35e-07,-1.01856,0.00115423
5.45e-07,-1.00025,0.00100484
5.55e-07,-0.981241,0.00115423
5.65e-07,-0.977016,0.00115423
5.75e-07,-0.984057,0.00115423
5.85e-07,-0.993211,0.00115423
5.95e-07,-0.996028,0.00115423
6.05e-07,-1.00166,0.00115423
6.15e-07,-0.998844,0.00115423
6.25e-07,-1.00307,0.00115423
6.35e-07,-1.00307,0.00115423
6.45e-07,-0.999548,0.00115423
6.55e-07,-0.994619,0.00115423
6.65e-07,-0.995323,0.00115423
6.75e-07,-0.996028,0.00115423
6.85e-07,-0.994619,0.00115423
6.95e-07,-0.995323,0.00115423
7.05e-07,-0.991803,0.00115423
7.15e-07,-0.991099,0.00115423
7.25e-07,-0.993915,0.000940932
7.35e-07,-0.991099,0.000815998
7.45e-07,-0.992507,0.00073454
7.55e-07,-0.993211,0.000674574
7.65e-07,-0.993915,0.000629265
7.75e-07,-0.995323,0.000588254
7.85e-07,-0.992507,0.000556263
7.95e-07,-0.993211,0.000531177
8.05e-07,-0.996732,0.0005044
8.15e-07,-0.991099,0.000480442
8.25e-07,-0.993915,0.000459655
8.35e-07,-0.993211,0.000439079
8.45e-07,-0.993915,0.000418503
8.55e-07,-0.995323,0.000398914
8.65e-07,-0.995323,0.000381157
8.75e-07,-0.993915,0.000361849
8.85e-07,-0.992507,0.000344726
8.95e-07,-0.994619,0.000327815
9.05e-07,-0.997436,0.000312594
9.15e-07,-0.993915,0.000298501
9.25e-07,-0.993915,0.00028469
9.35e-07,-0.996732,0.000271372
9.45e-07,-0.993915,0.000259464
9.55e-07,-0.997436,0.000249598
9.65e-07,-0.996732,0.000238676
9.75e-07,-0.996732,0.000228177
9.85e-07,-0.994619,0.000219439
9.95e-07,-0.998844,0.000211195
1.005e-06,-0.996028,0.00020288
1.015e-06,-0.996732,0.000193931
1.025e-06,-0.993211,0.000186532
1.035e-06,-0.99814,0.00017864
1.045e-06,-0.994619,0.000171875
1.055e-06,-0.998844,0.000166802
1.065e-06,-0.995323,0.000161446
1.075e-06,-0.998844,0.000155809
1.085e-06,-0.99814,0.000150242
1.095e-06,-0.997436,0.000145521
1.105e-06,-0.996028,0.000140518
1.115e-06,-0.995323,0.000135233
1.125e-06,-0.996732,0.000131146
1.135e-06,-0.997436,0.000126848
1.145e-06,-0.995323,0.000122691
1.155e-06,-0.99814,0.000119238
1.165e-06,-0.998844,0.000116983
1.175e-06,-0.995323,0.000114869
1.185e-06,-0.997436,0.000111134
1.195e-06,-0.99814,0.000107259
1.205e-06,-0.998844,0.000104651
1.215e-06,-0.995323,0.000102326
1.225e-06,-0.996028,9.96485e-05
1.235e-06,-1.00025,9.70413e-05
1.245e-06,-0.99814,9.41522e-05
1.255e-06,-0.998844,9.17564e-05
1.265e-06,-0.99814,8.97129e-05
1.275e-06,-0.998844,8.75284e-05
1.285e-06,-0.99814,8.56964e-05
1.295e-06,-0.997436,8.32301e-05
1.305e-06,-0.998844,8.10456e-05
1.315e-06,-1.00096,7.86498e-05
1.325e-06,-0.996732,7.66768e-05
1.335e-06,-0.998844,7.59017e-05
1.345e-06,-0.99814,7.39991e-05
1.355e-06,-0.999548,7.22375e-05
1.365e-06,-0.997436,7.0194e-05
1.375e-06,-0.997436,6.89256e-05
1.385e-06,-1.00096,6.80096e-05
1.395e-06,-1.00025,6.72345e-05
1.405e-06,-1.00096,6.73754e-05
1.415e-06,-0.999548,6.6107e-05
1.425e-06,-0.998844,6.49796e-05
1.435e-06,-1.00096,6.34998e-05
1.445e-06,-1.00025,6.27952e-05
1.455e-06,-0.99814,6.07517e-05
1.465e-06,-1.00236,5.92719e-05
1.475e-06,-0.998844,5.82149e-05
1.485e-06,-1.00096,5.63124e-05
1.495e-06,-1.00025,5.53963e-05
1.505e-06,-0.999548,5.37756e-05
1.515e-06,-0.997436,5.33528e-05
1.525e-06,-0.997436,5.3071e-05
1.535e-06,-1.00096,5.25777e-05
1.545e-06,-1.00025,5.08161e-05
1.555e-06,-1.00166,4.98296e-05
1.565e-06,-1.00096,4.87021e-05
1.575e-06,-0.999548,4.75042e-05
1.585e-06,-0.999548,4.66586e-05
1.595e-06,-0.998844,4.58131e-05
1.605e-06,-0.999548,4.43333e-05
1.615e-06,-1.00025,4.384e-05
1.625e-06,-1.00096,4.39105e-05
1.635e-06,-0.999548,4.40514e-05
1.645e-06,-0.999548,4.35582e-05
1.655e-06,-0.997436,4.28535e-05
1.665e-06,-1.00025,4.28535e-05
1.675e-06,-0.999548,4.27831e-05
1.685e-06,-0.99814,4.25717e-05
1.695e-06,-0.999548,4.1867e-05
1.705e-06,-1.00166,4.10214e-05
1.715e-06,-1.00166,3.92598e-05
1.725e-06,-1.00166,3.83437e-05
1.735e-06,-0.99814,3.7921e-05
1.745e-06,-0.999548,3.72163e-05
1.755e-06,-0.99814,3.66526e-05
1.765e-06,-1.00025,3.64412e-05
1.775e-06,-1.00025,3.63707e-05
1.785e-06,-0.998844,3.6723e-05
1.795e-06,-1.00096,3.65117e-05
1.805e-06,-1.00025,3.62298e-05
1.815e-06,-0.999548,3.53137e-05
1.825e-06,-1.00236,3.49614e-05
1.835e-06,-1.00096,3.3693e-05
1.845e-06,-1.00096,3.29179e-05
1.855e-06,-1.00025,3.21428e-05
1.865e-06,-0.999548,3.22837e-05
1.875e-06,-0.998844,3.16496e-05
1.885e-06,-0.998844,3.12268e-05
1.895e-06,-0.999548,3.11563e-05
1.905e-06,-0.999548,3.10858e-05
1.915e-06,-1.00096,3.19314e-05
1.925e-06,-0.999548,3.22837e-05
1.935e-06,-1.00166,3.19314e-05
1.945e-06,-0.999548,3.0804e-05
1.955e-06,-1.00025,2.98879e-05
1.965e-06,-0.999548,2.869e-05
1.975e-06,-1.00096,2.78444e-05
1.985e-06,-1.00166,2.74921e-05
1.995e-06,-1.00025,2.69989e-05
2.005e-06,-0.999548,2.62237e-05
2.015e-06,-0.998844,2.72102e-05
2.025e-06,-0.999548,2.68579e-05
2.035e-06,-1.00166,2.59419e-05
2.045e-06,-1.00025,2.60123e-05
2.055e-06,-0.998844,2.60828e-05
2.065e-06,-1.00025,2.65056e-05
2.075e-06,-1.00025,2.70693e-05
2.085e-06,-1.00025,2.72807e-05
2.095e-06,-1.00025,2.62942e-05
2.105e-06,-1.00025,2.48144e-05
2.115e-06,-1.00236,2.42507e-05
2.125e-06,-0.999548,2.41098e-05
2.135e-06,-0.996732,2.43916e-05
2.145e-06,-1.00025,2.48144e-05
2.155e-06,-1.00096,2.42507e-05
2.165e-06,-1.00025,2.38984e-05
2.175e-06,-1.00096,2.41802e-05
2.185e-06,-1.00166,2.38984e-05
2.195e-06,-0.999548,2.31233e-05
2.205e-06,-1.00096,2.31233e-05
2.215e-06,-1.00025,2.38984e-05
2.225e-06,-1.00025,2.45326e-05
2.235e-06,-1.00096,2.43212e-05
2.245e-06,-1.00025,2.36165e-05
2.255e-06,-1.00236,2.28414e-05
2.265e-06,-0.99814,2.22072e-05
2.275e-06,-1.00025,2.16435e-05
2.285e-06,-1.00166,2.12207e-05
2.295e-06,-0.998844,2.10093e-05
2.305e-06,-0.999548,2.02342e-05
2.315e-06,-1.00236,1.98819e-05
2.325e-06,-1.00025,2.02342e-05
2.335e-06,-1.00025,2.07979e-05
2.345e-06,-0.996732,2.07275e-05
2.355e-06,-1.00236,2.05161e-05
2.365e-06,-0.99814,2.07979e-05
2.375e-06,-1.00166,2.05865e-05
2.385e-06,-0.99814,1.91068e-05
2.395e-06,-0.996028,1.84726e-05
2.405e-06,-0.999548,1.93181e-05
2.415e-06,-0.999548,1.98819e-05
2.425e-06,-0.999548,1.98114e-05
2.435e-06,-0.99814,1.90363e-05
2.445e-06,-1.00236,1.84021e-05
2.455e-06,-0.998844,1.81907e-05
2.465e-06,-1.00025,1.76974e-05
2.475e-06,-1.00096,1.75565e-05
2.485e-06,-0.999548,1.62881e-05
2.495e-06,-0.997436,1.55835e-05
2.505e-06,-0.99814,1.50198e-05
2.515e-06,-0.999548,1.48788e-05
2.525e-06,-0.999548,1.50902e-05
2.535e-06,-1.00236,1.50902e-05
2.545e-06,-1.00096,1.62881e-05
2.555e-06,-0.998844,1.67814e-05
2.565e-06,-0.998844,1.68519e-05
2.575e-06,-0.999548,1.64995e-05
2.585e-06,-1.00096,1.63586e-05
2.595e-06,-0.997436,1.69928e-05
2.605e-06,-0.99814,1.64291e-05
2.615e-06,-1.00166,1.58654e-05
2.625e-06,-1.00025,1.59358e-05
2.635e-06,-1.00025,1.5654e-05
2.645e-06,-0.998844,1.59358e-05
2.655e-06,-1.00166,1.57949e-05
2.665e-06,-0.999548,1.57949e-05
2.675e-06,-1.00236,1.5654e-05
2.685e-06,-0.999548,1.62881e-05
2.695e-06,-0.998844,1.61472e-05
2.705e-06,-1.00166,1.60063e-05
2.715e-06,-1.00236,1.58654e-05
2.725e-06,-0.999548,1.52312e-05
2.735e-06,-1.00096,1.43151e-05
2.745e-06,-1.00307,1.41037e-05
2.755e-06,-1.00096,1.4456e-05
2.765e-06,-0.998844,1.43151e-05
2.775e-06,-0.999548,1.36105e-05
2.785e-06,-1.00096,1.34695e-05
2.795e-06,-0.999548,1.41742e-05
2.805e-06,-0.99814,1.41037e-05
2.815e-06,-1.00096,1.36809e-05
2.825e-06,-1.00236,1.41037e-05
2.835e-06,-1.00096,1.39628e-05
2.845e-06,-1.00096,1.40333e-05
2.855e-06,-1.00096,1.37514e-05
2.865e-06,-1.00025,1.39628e-05
2.875e-06,-0.998844,1.36105e-05
2.885e-06,-1.00025,1.39628e-05
2.895e-06,-0.99814,1.38219e-05
2.905e-06,-1.00166,1.40333e-05
2.915e-06,-0.998844,1.354e-05
2.925e-06,-0.999548,1.36105e-05
2.935e-06,-0.999548,1.31172e-05
2.945e-06,-1.00025,1.29058e-05
2.955e-06,-1.00025,1.25535e-05
2.965e-06,-1.00096,1.29763e-05
2.975e-06,-0.99814,1.2483e-05
2.985e-06,-0.998844,1.2624e-05
2.995e-06,-0.998844,1.30467e-05
3.005e-06,-0.993915,1.26944e-05
3.015e-06,-0.999548,1.25535e-05
3.025e-06,-0.998844,1.29058e-05
3.035e-06,-0.99814,1.2624e-05
3.045e-06,-0.99814,1.22716e-05
3.055e-06,-0.999548,1.1426e-05
3.065e-06,-0.996732,1.09328e-05
3.075e-06,-0.999548,1.07214e-05
3.085e-06,-0.99814,1.11442e-05
3.095e-06,-1.00025,1.16374e-05
3.105e-06,-1.00096,1.17784e-05
3.115e-06,-1.00096,1.16374e-05
3.125e-06,-0.998844,1.14965e-05
3.135e-06,-0.999548,1.17784e-05
3.145e-06,-1.00025,1.20602e-05
3.155e-06,-1.00096,1.22012e-05
3.165e-06,-0.996732,1.21307e-05
3.175e-06,-0.998844,1.19898e-05
3.185e-06,-0.99814,1.18488e-05
3.195e-06,-0.996732,1.16374e-05
3.205e-06,-1.00166,1.20602e-05
3.215e-06,-1.00025,1.12147e-05
3.225e-06,-0.998844,1.11442e-05
3.235e-06,-1.00166,1.051e-05
3.245e-06,-0.99814,9.94628e-06
3.255e-06,-1.00025,1.00167e-05
3.265e-06,-0.996732,1.051e-05
3.275e-06,-0.999548,1.09328e-05
3.285e-06,-0.997436,1.10033e-05
3.295e-06,-0.996732,1.051e-05
3.305e-06,-1.00025,1.01577e-05
3.315e-06,-1.00166,1.04395e-05
3.325e-06,-0.997436,1.04395e-05
3.335e-06,-0.999548,1.06509e-05
3.345e-06,-0.998844,1.08623e-05
3.355e-06,-1.00096,1.12147e-05
3.365e-06,-1.00025,1.1567e-05
3.375e-06,-0.998844,1.19193e-05
3.385e-06,-1.00025,1.18488e-05
3.395e-06,-1.00025,1.09328e-05
3.405e-06,-1.00025,1.07214e-05
3.415e-06,-1.00166,1.04395e-05
3.425e-06,-0.998844,1.06509e-05
3.435e-06,-0.998844,9.94628e-06
3.445e-06,-0.996732,9.1007e-06
3.455e-06,-1.00096,9.1007e-06
3.465e-06,-0.999548,9.45302e-06
3.475e-06,-1.00166,9.24163e-06
3.485e-06,-1.00236,8.8893e-06
3.495e-06,-1.00025,1.02986e-05
3.505e-06,-1.00236,1.08623e-05
3.515e-06,-1.00166,1.07919e-05
3.525e-06,-0.999548,1.07214e-05
3.535e-06,-0.998844,1.02281e-05
3.545e-06,-1.00025,9.94628e-06
3.555e-06,-1.00025,9.45302e-06
3.565e-06,-1.00166,9.66442e-06
3.575e-06,-0.997436,9.31209e-06
3.585e-06,-0.998844,9.03023e-06
3.595e-06,-0.999548,8.04372e-06
3.605e-06,-0.999548,8.32558e-06
3.615e-06,-1.00307,9.31209e-06
3.625e-06,-1.00166,9.73488e-06
3.635e-06,-1.00096,1.04395e-05
3.645e-06,-1.00166,1.00872e-05
3.655e-06,-0.999548,8.95977e-06
3.665e-06,-0.998844,7.90279e-06
3.675e-06,-0.998844,7.90279e-06
3.685e-06,-1.00096,8.25511e-06
3.695e-06,-0.99814,9.03023e-06
3.705e-06,-0.997436,8.25511e-06
3.715e-06,-1.00166,7.83232e-06
3.725e-06,-1.00025,7.62093e-06
3.735e-06,-1.00166,7.48e-06
3.745e-06,-1.00096,8.11418e-06
3.755e-06,-1.00096,9.59395e-06
3.765e-06,-0.999548,1.051e-05
3.775e-06,-0.99814,1.10737e-05
3.785e-06,-0.999548,1.17784e-05
3.795e-06,-1.00096,1.17079e-05
3.805e-06,-1.00096,1.05805e-05
3.815e-06,-0.997436,9.94628e-06
3.825e-06,-0.998844,9.31209e-06
3.835e-06,-1.00166,8.53697e-06
3.845e-06,-0.999548,7.55046e-06
3.855e-06,-0.999548,7.48e-06
3.865e-06,-1.00096,7.62093e-06
3.875e-06,-1.00096,8.25511e-06
3.885e-06,-1.00236,8.60744e-06
3.895e-06,-1.00025,8.46651e-06
3.905e-06,-1.00236,7.97325e-06
3.915e-06,-0.999548,7.40953e-06
3.925e-06,-1.00025,6.63441e-06
3.935e-06,-0.999548,7.2686e-06
3.945e-06,-1.00096,7.90279e-06
3.955e-06,-0.99814,8.04372e-06
3.965e-06,-1.00236,9.38256e-06
3.975e-06,-0.999548,9.87581e-06
3.985e-06,-1.00096,9.73488e-06
3.995e-06,-1.00096,9.59395e-06
4.005e-06,-1.00096,9.1007e-06
4.015e-06,-0.999548,8.81883e-06
4.025e-06,-0.99814,7.97325e-06
4.035e-06,-0.997436,7.19814e-06
4.045e-06,-0.998844,6.77534e-06
4.055e-06,-1.00096,6.91627e-06
4.065e-06,-0.999548,7.55046e-06
4.075e-06,-1.00307,7.83232e-06
4.085e-06,-1.00236,8.60744e-06
4.095e-06,-0.999548,8.8893e-06
4.105e-06,-1.00236,7.90279e-06
4.115e-06,-1.00096,6.84581e-06
4.125e-06,-1.00025,6.14116e-06
4.135e-06,-0.998844,4.80232e-06
4.145e-06,-1.00166,4.66139e-06
4.155e-06,-0.998844,4.59092e-06
4.165e-06,-1.00025,5.08418e-06
4.175e-06,-1.00025,5.57744e-06
4.185e-06,-1.00025,6.49348e-06
4.195e-06,-1.00025,7.2686e-06
4.205e-06,-0.998844,7.40953e-06
4.215e-06,-1.00166,6.91627e-06
4.225e-06,-1.00166,6.56395e-06
4.235e-06,-1.00236,7.2686e-06
4.245e-06,-1.00307,7.97325e-06
4.255e-06,-1.00236,7.97325e-06
4.265e-06,-1.00166,8.18465e-06
4.275e-06,-1.00025,7.55046e-06
4.285e-06,-0.99814,8.04372e-06
4.295e-06,-1.00025,7.62093e-06
4.305e-06,-1.00377,7.12767e-06
4.315e-06,-1.00025,7.83232e-06
4.325e-06,-1.00448,7.69139e-06
4.335e-06,-1.00025,8.11418e-06
4.345e-06,-1.00096,7.69139e-06
4.355e-06,-0.997436,7.12767e-06
4.365e-06,-1.00166,7.33907e-06
4.375e-06,-0.999548,7.55046e-06
4.385e-06,-0.998844,6.91627e-06
4.395e-06,-1.00096,7.19814e-06
4.405e-06,-0.999548,7.62093e-06
4.415e-06,-1.00025,7.69139e-06
4.425e-06,-1.00025,7.83232e-06
4.435e-06,-0.998844,8.6779e-06
4.445e-06,-1.00025,8.53697e-06
4.455e-06,-1.00096,8.25511e-06
4.465e-06,-1.00025,7.33907e-06
4.475e-06,-0.999548,7.19814e-06
4.485e-06,-0.998844,6.77534e-06
4.495e-06,-0.998844,7.19814e-06
4.505e-06,-0.999548,6.00023e-06
4.515e-06,-0.999548,6.00023e-06
4.525e-06,-1.00307,6.00023e-06
4.535e-06,-0.999548,5.78883e-06
4.545e-06,-1.00166,6.35255e-06
4.555e-06,-1.00377,6.91627e-06
4.565e-06,-1.00096,8.11418e-06
4.575e-06,-1.00166,7.62093e-06
4.585e-06,-1.00236,7.48e-06
4.595e-06,-0.999548,7.12767e-06
4.605e-06,-1.00096,7.33907e-06
4.615e-06,-1.00096,7.33907e-06
4.625e-06,-1.00025,6.77534e-06
4.635e-06,-0.997436,6.00023e-06
4.645e-06,-1.00025,5.08418e-06
4.655e-06,-1.00096,5.43651e-06
4.665e-06,-1.00166,5.57744e-06
4.675e-06,-1.00025,6.07069e-06
4.685e-06,-1.00166,6.49348e-06
4.695e-06,-1.00236,6.63441e-06
4.705e-06,-0.999548,6.42302e-06
4.715e-06,-1.00096,6.00023e-06
4.725e-06,-1.00096,6.00023e-06
4.735e-06,-1.00096,6.07069e-06
4.745e-06,-1.00236,6.49348e-06
4.755e-06,-1.00307,7.05721e-06
4.765e-06,-1.00025,7.2686e-06
4.775e-06,-1.00166,6.77534e-06
4.785e-06,-1.00096,6.35255e-06
4.795e-06,-0.999548,6.07069e-06
4.805e-06,-0.998844,5.50697e-06
4.815e-06,-0.999548,5.29558e-06
4.825e-06,-0.999548,5.8593e-06
4.835e-06,-0.998844,5.50697e-06
4.845e-06,-1.00025,6.35255e-06
4.855e-06,-0.999548,6.00023e-06
4.865e-06,-0.99814,6.28209e-06
4.875e-06,-1.00096,6.42302e-06
4.885e-06,-1.00025,6.35255e-06
4.895e-06,-0.99814,6.77534e-06
4.905e-06,-1.00025,6.28209e-06
4.915e-06,-0.999548,5.36604e-06
4.925e-06,-0.99814,5.92976e-06
4.935e-06,-0.997436,6.21162e-06
4.945e-06,-0.997436,6.42302e-06
4.955e-06,-1.00096,6.56395e-06
4.965e-06,-1.00025,6.28209e-06
4.975e-06,-0.998844,6.84581e-06
4.985e-06,-1.00025,6.14116e-06
4.995e-06,-1.00025,6.98674e-06
5.005e-06,-1.00377,7.05721e-06
5.015e-06,-0.99814,6.49348e-06
5.025e-06,-1.00236,6.07069e-06
5.035e-06,-1.00236,5.92976e-06
5.045e-06,-0.99814,5.36604e-06
5.055e-06,-1.00025,6.00023e-06
5.065e-06,-1.00096,5.6479e-06
5.075e-06,-1.00096,5.6479e-06
5.085e-06,-1.00166,4.73185e-06
5.095e-06,-1.00096,5.08418e-06
5.105e-06,-0.999548,4.87278e-06
5.115e-06,-0.999548,4.94325e-06
5.125e-06,-1.00025,5.36604e-06
5.135e-06,-0.99814,5.71837e-06
5.145e-06,-1.00096,5.22511e-06
5.155e-06,-0.99814,5.57744e-06
5.165e-06,-1.00025,5.6479e-06
5.175e-06,-0.997436,5.50697e-06
5.185e-06,-1.00166,4.94325e-06
5.195e-06,-1.00166,4.2386e-06
5.205e-06,-0.999548,4.59092e-06
5.215e-06,-1.00025,4.94325e-06
5.225e-06,-0.99814,3.95674e-06
5.235e-06,-0.998844,4.30906e-06
5.245e-06,-1.00096,5.6479e-06
5.255e-06,-0.997436,6.28209e-06
5.265e-06,-0.998844,6.14116e-06
5.275e-06,-1.00096,6.07069e-06
5.285e-06,-1.00025,6.42302e-06
5.295e-06,-0.996732,5.78883e-06
5.305e-06,-0.999548,5.71837e-06
5.315e-06,-0.998844,5.15465e-06
5.325e-06,-1.00025,5.29558e-06
5.335e-06,-0.998844,4.73185e-06
5.345e-06,-1.00025,5.36604e-06
5.355e-06,-1.00025,5.78883e-06
5.365e-06,-0.999548,5.8593e-06
5.375e-06,-1.00236,4.66139e-06
5.385e-06,-1.00096,5.15465e-06
5.395e-06,-1.00096,5.43651e-06
5.405e-06,-0.99814,5.8593e-06
5.415e-06,-0.997436,5.43651e-06
5.425e-06,-0.998844,5.15465e-06
5.435e-06,-0.99814,3.95674e-06
5.445e-06,-0.998844,3.67488e-06
5.455e-06,-1.00236,3.74534e-06
5.465e-06,-1.00096,3.81581e-06
5.475e-06,-1.00166,4.73185e-06
5.485e-06,-0.99814,4.87278e-06
5.495e-06,-1.00166,4.59092e-06
5.505e-06,-0.999548,5.01371e-06
5.515e-06,-0.994619,5.22511e-06
5.525e-06,-0.937584,5.36604e-06
5.535e-06,-0.84323,-6.04932e-06
5.545e-06,-0.734793,-7.80647e-05
5.555e-06,-0.631285,-0.000237739
5.565e-06,-0.532002,-0.000469358
5.575e-06,-0.434831,-0.000744947
5.585e-06,-0.336956,-0.00103378
5.595e-06,-0.236968,-0.00115069
5.605e-06,-0.134868,-0.00115069
5.615e-06,-0.0426265,-0.00115069
5.625e-06,-0.000378314,-0.00115069
5.635e-06,-0.000378314,-0.00115069
5.645e-06,-0.000378314,-0.00115069
5.655e-06,-0.00953209,-0.00115069
5.665e-06,-0.00530727,-0.00115069
5.675e-06,-0.00741968,-0.00115069
5.685e-06,-0.00319486,-0.00115069
5.695e-06,-0.00460313,-0.00115069
5.705e-06,-0.00460313,-0.000991294
5.715e-06,-0.00249072,-0.000741354
5.725e-06,-0.00460313,-0.00051967
5.735e-06,-0.00319486,-0.00033026
5.745e-06,-0.003899,-0.000175729
5.755e-06,-0.00601141,-5.45294e-05
5.765e-06,-0.00741968,3.5807e-05
5.775e-06,-0.00601141,9.72526e-05
5.785e-06,-0.00530727,0.00013467
5.795e-06,-0.003899,0.000153132
5.805e-06,-0.00319486,0.000156443
5.815e-06,0.0158168,0.000147565
5.825e-06,0.20875,0.000129596
5.835e-06,0.550257,6.58252e-05
5.845e-06,0.917816,-0.000208707
5.855e-06,1.27833,-0.000782012
5.865e-06,1.62899,-0.00115069
5.875e-06,1.96909,-0.00115069
5.885e-06,2.30919,-0.00115069
5.895e-06,2.6521,-0.00115069
5.905e-06,2.99784,-0.00115069
5.915e-06,3.32596,-0.00115069
5.925e-06,3.47947,-0.00115069
5.935e-06,3.49073,-0.00115069
5.945e-06,3.47947,-0.00115069
5.955e-06,3.47031,-0.00115069
5.965e-06,3.47031,-0.00115069
5.975e-06,3.47665,-0.00115069
5.985e-06,3.48651,-0.00115069
5.995e-06,3.49144,-0.00115069
6.005e-06,3.49073,-0.00115069
6.015e-06,3.49355,-0.00115069
6.025e-06,3.49566,-0.00115069
6.035e-06,3.49707,-0.00115069
6.045e-06,3.49003,-0.00115069
6.055e-06,3.49144,-0.00115069
6.065e-06,3.49214,-0.00115069
6.075e-06,3.49214,-0.00115069
6.085e-06,3.48792,-0.00115069
6.095e-06,3.48369,-0.00115069
6.105e-06,3.4858,-0.00115069
6.115e-06,3.46045,-0.00115069
6.125e-06,3.20837,-0.000130914
6.135e-06,2.7697,0.000917115
6.145e-06,2.30285,0.00115423
6.155e-06,1.82756,0.00115423
6.165e-06,1.37339,0.00115423
6.175e-06,0.929786,0.00115423
6.185e-06,0.492517,0.00115423
6.195e-06,0.0552485,0.00115423
6.205e-06,-0.387653,0.00115423
6.215e-06,-0.806615,0.00115423
6.225e-06,-1.00659,0.00115423
6.235e-06,-1.01997,0.00115423
6.245e-06,-1.00236,0.00115423
6.255e-06,-0.983353,0.00115423
6.265e-06,-0.979833,0.00115423
6.275e-06,-0.983353,0.00115423
6.285e-06,-0.990395,0.00115423
6.295e-06,-0.998844,0.00115423
6.305e-06,-1.00377,0.00115423
6.315e-06,-1.00236,0.00115423
6.325e-06,-1.00307,0.00115423
6.335e-06,-1.00025,0.00115423
6.345e-06,-0.996732,0.00115423
6.355e-06,-0.996732,0.00115423
6.365e-06,-0.996732,0.00115423
6.375e-06,-0.996028,0.00115423
6.385e-06,-0.994619,0.00115423
6.395e-06,-0.996028,0.00115423
6.405e-06,-0.993211,0.00115423
6.415e-06,-0.992507,0.00107369
