
Time,Voltage,Current
5e-09,-0.00319486,2.97022e-06
1.5e-08,-0.00319486,3.04069e-06
2.5e-08,-0.000378314,2.75883e-06
3.5e-08,-0.003899,3.32255e-06
4.5e-08,-0.00601141,2.75883e-06
5.5e-08,-0.00319486,1.63139e-06
6.5e-08,-0.00319486,1.41999e-06
7.5e-08,-0.00249072,1.06766e-06
8.5e-08,-0.00460313,1.27906e-06
9.5e-08,-0.00178659,1.77232e-06
1.05e-07,-0.00108245,1.56092e-06
1.15e-07,0.011592,1.63139e-06
1.25e-07,0.16791,7.15338e-07
1.35e-07,0.431962,-2.89505e-05
1.45e-07,0.720658,-0.000211033
1.55e-07,1.00442,-0.000608456
1.65e-07,1.27693,-0.00108572
1.75e-07,1.5445,-0.00115069
1.85e-07,1.80996,-0.00115069
1.95e-07,2.07823,-0.00115069
2.05e-07,2.35003,-0.00115069
2.15e-07,2.60563,-0.00115069
2.25e-07,2.72604,-0.00115069
2.35e-07,2.73097,-0.00115069
2.45e-07,2.72252,-0.00115069
2.55e-07,2.71336,-0.00115069
2.65e-07,2.71336,-0.00115069
2.75e-07,2.71759,-0.00115069
2.85e-07,2.72041,-0.00115069
2.95e-07,2.72533,-0.00115069
3.05e-07,2.72745,-0.00115069
3.15e-07,2.73026,-0.00115069
3.25e-07,2.73097,-0.00115069
3.35e-07,2.73097,-0.00115069
3.45e-07,2.73308,-0.00115069
3.55e-07,2.72886,-0.00115069
3.65e-07,2.73238,-0.00115069
3.75e-07,2.7359,-0.00115069
3.85e-07,2.73519,-0.00115069
3.95e-07,2.7359,-0.00115069
4.05e-07,2.73519,-0.00115069
4.15e-07,2.7359,-0.00115069
4.25e-07,2.73871,-0.00115069
4.35e-07,2.7359,-0.00115069
4.45e-07,2.73519,-0.00115069
4.55e-07,2.73519,-0.00115069
4.65e-07,2.73731,-0.00115069
4.75e-07,2.73731,-0.00115069
4.85e-07,2.73519,-0.00115069
4.95e-07,2.73801,-0.00115069
5.05e-07,2.7366,-0.00115069
5.15e-07,2.73871,-0.00115069
5.25e-07,2.73731,-0.00115069
5.35e-07,2.73801,-0.00115069
5.45e-07,2.73801,-0.00115069
5.55e-07,2.74012,-0.00115069
5.65e-07,2.73942,-0.00115069
5.75e-07,2.73942,-0.00115069
5.85e-07,2.74012,-0.00115069
5.95e-07,2.74012,-0.00115069
6.05e-07,2.74083,-0.00115069
6.15e-07,2.73801,-0.00115069
6.25e-07,2.74153,-0.00115069
6.35e-07,2.73801,-0.00115069
6.45e-07,2.73871,-0.00115069
6.55e-07,2.73801,-0.00115069
6.65e-07,2.74223,-0.00115069
6.75e-07,2.73871,-0.00115069
6.85e-07,2.74083,-0.00115069
6.95e-07,2.74223,-0.00115069
7.05e-07,2.74223,-0.00115069
7.15e-07,2.74294,-0.00115069
7.25e-07,2.73942,-0.00115069
7.35e-07,2.73942,-0.00115069
7.45e-07,2.74223,-0.00115069
7.55e-07,2.74364,-0.00115069
7.65e-07,2.74083,-0.00115069
7.75e-07,2.73871,-0.00115069
7.85e-07,2.74223,-0.00115069
7.95e-07,2.74012,-0.00115069
8.05e-07,2.74223,-0.00115069
8.15e-07,2.72181,-0.00115069
8.25e-07,2.54296,-0.00115069
8.35e-07,2.22681,-0.00115069
8.45e-07,1.88671,-0.00115069
8.55e-07,1.55224,-0.00115069
8.65e-07,1.23116,-0.00115069
8.75e-07,0.912183,-0.00115069
8.85e-07,0.597434,-0.00115069
8.95e-07,0.282685,-0.00115069
9.05e-07,-0.0376976,-0.00115069
9.15e-07,-0.342589,-0.00115069
9.25e-07,-0.484824,-0.00115069
9.35e-07,-0.497499,-0.00115069
9.45e-07,-0.483416,-0.00115069
9.55e-07,-0.47215,0.000163279
9.65e-07,-0.47215,0.00115423
9.75e-07,-0.474966,0.00115423
9.85e-07,-0.487641,0.00115423
9.95e-07,-0.487641,0.00115423
1.005e-06,-0.490457,0.00115423
1.015e-06,-0.491866,0.00115423
1.025e-06,-0.496091,0.00115423
1.035e-06,-0.493274,0.00115423
1.045e-06,-0.490457,0.00115423
1.055e-06,-0.49257,0.00115423
1.065e-06,-0.491162,0.00115423
1.075e-06,-0.491162,0.00115423
1.085e-06,-0.489753,0.00115423
1.095e-06,-0.491866,0.00115423
1.105e-06,-0.490457,0.00115423
1.115e-06,-0.491866,0.00115423
1.125e-06,-0.494682,0.00115423
1.135e-06,-0.49257,0.00115423
1.145e-06,-0.49257,0.00115423
1.155e-06,-0.493978,0.00115423
1.165e-06,-0.491866,0.000972853
1.175e-06,-0.495386,0.000935718
1.185e-06,-0.495386,0.00095122
1.195e-06,-0.494682,0.000965313
1.205e-06,-0.496091,0.00097546
1.215e-06,-0.496091,0.000982577
1.225e-06,-0.495386,0.000986805
1.235e-06,-0.494682,0.000988215
1.245e-06,-0.494682,0.000988003
1.255e-06,-0.496795,0.000987017
1.265e-06,-0.494682,0.000984128
1.275e-06,-0.496795,0.000981802
1.285e-06,-0.496795,0.000979618
1.295e-06,-0.498907,0.000977151
1.305e-06,-0.497499,0.000976024
1.315e-06,-0.498907,0.000974544
1.325e-06,-0.495386,0.000972712
1.335e-06,-0.498907,0.000971162
1.345e-06,-0.498203,0.000970246
1.355e-06,-0.497499,0.000970387
1.365e-06,-0.497499,0.000969753
1.375e-06,-0.500315,0.000968977
1.385e-06,-0.499611,0.000968696
1.395e-06,-0.498203,0.000967286
1.405e-06,-0.498203,0.000966934
1.415e-06,-0.498203,0.00096785
1.425e-06,-0.499611,0.000968273
1.435e-06,-0.502428,0.000968273
1.445e-06,-0.498203,0.000967709
1.455e-06,-0.500315,0.000967216
1.465e-06,-0.498907,0.000967004
1.475e-06,-0.498203,0.000967145
1.485e-06,-0.498907,0.000967427
1.495e-06,-0.500315,0.00096792
1.505e-06,-0.498203,0.000967991
1.515e-06,-0.498907,0.000968414
1.525e-06,-0.50102,0.000969259
1.535e-06,-0.498203,0.000969894
1.545e-06,-0.499611,0.000969259
1.555e-06,-0.497499,0.000968343
1.565e-06,-0.501724,0.000968907
1.575e-06,-0.50102,0.00096785
1.585e-06,-0.501724,0.000967427
1.595e-06,-0.498907,0.000966864
1.605e-06,-0.498203,0.000966582
1.615e-06,-0.499611,0.00096637
1.625e-06,-0.499611,0.000966159
1.635e-06,-0.502428,0.000965947
1.645e-06,-0.50102,0.000965525
1.655e-06,-0.501724,0.000965454
1.665e-06,-0.498907,0.00096482
1.675e-06,-0.50102,0.000964961
1.685e-06,-0.502428,0.000965525
1.695e-06,-0.498907,0.000965525
1.705e-06,-0.498203,0.000965877
1.715e-06,-0.500315,0.000965454
1.725e-06,-0.501724,0.000965243
1.735e-06,-0.499611,0.000965243
1.745e-06,-0.502428,0.000965736
1.755e-06,-0.500315,0.000965666
1.765e-06,-0.50102,0.0009663
1.775e-06,-0.499611,0.000966018
1.785e-06,-0.498907,0.000965454
1.795e-06,-0.502428,0.000964397
1.805e-06,-0.500315,0.000964327
1.815e-06,-0.501724,0.00096482
1.825e-06,-0.503836,0.000964609
1.835e-06,-0.499611,0.00096489
1.845e-06,-0.501724,0.000965666
1.855e-06,-0.50102,0.000966511
1.865e-06,-0.502428,0.000966864
1.875e-06,-0.502428,0.000966723
1.885e-06,-0.50102,0.000966652
1.895e-06,-0.497499,0.000966934
1.905e-06,-0.50102,0.00096637
1.915e-06,-0.499611,0.000966229
1.925e-06,-0.50454,0.000966511
1.935e-06,-0.503836,0.000965947
1.945e-06,-0.50102,0.000965736
1.955e-06,-0.50102,0.000966229
1.965e-06,-0.499611,0.000966582
1.975e-06,-0.50102,0.000966088
1.985e-06,-0.503132,0.000966159
1.995e-06,-0.499611,0.000965666
2.005e-06,-0.501724,0.000965877
2.015e-06,-0.50102,0.000965172
2.025e-06,-0.502428,0.000964045
2.035e-06,-0.50454,0.000963904
2.045e-06,-0.50454,0.000964538
2.055e-06,-0.502428,0.00096475
2.065e-06,-0.503132,0.00096475
2.075e-06,-0.505244,0.000965313
2.085e-06,-0.506653,0.000966159
2.095e-06,-0.499611,0.000965877
2.105e-06,-0.502428,0.000965031
2.115e-06,-0.50454,0.000965031
2.125e-06,-0.499611,0.000964538
2.135e-06,-0.50454,0.000963693
2.145e-06,-0.501724,0.000963974
2.155e-06,-0.503132,0.000964256
2.165e-06,-0.50102,0.000963974
2.175e-06,-0.50102,0.000964045
2.185e-06,-0.505244,0.00096482
2.195e-06,-0.503132,0.000965243
2.205e-06,-0.503132,0.000966088
2.215e-06,-0.50454,0.000966441
2.225e-06,-0.500315,0.000967004
2.235e-06,-0.502428,0.000967004
2.245e-06,-0.50454,0.000966793
2.255e-06,-0.503836,0.000967286
2.265e-06,-0.505948,0.00096785
2.275e-06,-0.505244,0.000967427
2.285e-06,-0.505244,0.000966864
2.295e-06,-0.503836,0.000966723
2.305e-06,-0.505948,0.000965877
2.315e-06,-0.50454,0.000965172
2.325e-06,-0.50102,0.000964327
2.335e-06,-0.503132,0.000963763
2.345e-06,-0.50102,0.000963622
2.355e-06,-0.501724,0.000963834
2.365e-06,-0.501724,0.000964397
2.375e-06,-0.503132,0.000964609
2.385e-06,-0.502428,0.000964468
2.395e-06,-0.503132,0.000964327
2.405e-06,-0.501724,0.00096475
2.415e-06,-0.503836,0.000964538
2.425e-06,-0.501724,0.000964045
2.435e-06,-0.503132,0.000964256
2.445e-06,-0.50454,0.000963622
2.455e-06,-0.503132,0.000964045
2.465e-06,-0.50454,0.000964468
2.475e-06,-0.503836,0.000964186
2.485e-06,-0.505244,0.000963904
2.495e-06,-0.503132,0.000963622
2.505e-06,-0.505948,0.000964538
2.515e-06,-0.503132,0.000965172
2.525e-06,-0.501724,0.000965525
2.535e-06,-0.503836,0.000966018
2.545e-06,-0.503836,0.000966582
2.555e-06,-0.505948,0.000966582
2.565e-06,-0.503836,0.000965947
2.575e-06,-0.50454,0.000965313
2.585e-06,-0.503132,0.00096475
2.595e-06,-0.50454,0.000964397
2.605e-06,-0.50454,0.000964186
2.615e-06,-0.503836,0.000964468
2.625e-06,-0.501724,0.000964186
2.635e-06,-0.501724,0.000964045
2.645e-06,-0.505244,0.000963552
2.655e-06,-0.503132,0.00096334
2.665e-06,-0.501724,0.000963411
2.675e-06,-0.503132,0.00096334
2.685e-06,-0.503132,0.000963693
2.695e-06,-0.50102,0.000963974
2.705e-06,-0.503132,0.00096482
2.715e-06,-0.503132,0.000963693
2.725e-06,-0.506653,0.00096334
2.735e-06,-0.502428,0.000962565
2.745e-06,-0.50102,0.000963129
2.755e-06,-0.501724,0.000963622
2.765e-06,-0.50454,0.000963904
2.775e-06,-0.50102,0.000963763
2.785e-06,-0.503132,0.000964186
2.795e-06,-0.50102,0.000963904
2.805e-06,-0.503836,0.000964115
2.815e-06,-0.500315,0.00096489
2.825e-06,-0.499611,0.000966018
2.835e-06,-0.505244,0.000965666
2.845e-06,-0.503132,0.000965595
2.855e-06,-0.503836,0.000965877
2.865e-06,-0.50102,0.000965454
2.875e-06,-0.503836,0.000965102
2.885e-06,-0.502428,0.000964609
2.895e-06,-0.503132,0.000964327
2.905e-06,-0.503132,0.000963763
2.915e-06,-0.50454,0.000962706
2.925e-06,-0.50102,0.000962917
2.935e-06,-0.502428,0.000963834
2.945e-06,-0.505244,0.000964115
2.955e-06,-0.503132,0.000964538
2.965e-06,-0.501724,0.000964679
2.975e-06,-0.505244,0.000964609
2.985e-06,-0.505244,0.000964468
2.995e-06,-0.502428,0.000964538
3.005e-06,-0.50454,0.00096475
3.015e-06,-0.502428,0.000965384
3.025e-06,-0.503836,0.000965807
3.035e-06,-0.503132,0.000965172
3.045e-06,-0.500315,0.00096489
3.055e-06,-0.50102,0.000963693
3.065e-06,-0.503836,0.00096327
3.075e-06,-0.503132,0.000963058
3.085e-06,-0.50102,0.000963411
3.095e-06,-0.499611,0.000962777
3.105e-06,-0.50454,0.000962988
3.115e-06,-0.503836,0.000963693
3.125e-06,-0.503132,0.000964045
3.135e-06,-0.499611,0.000964397
3.145e-06,-0.502428,0.000963904
3.155e-06,-0.503836,0.000964115
3.165e-06,-0.50454,0.000964327
3.175e-06,-0.503836,0.000963552
3.185e-06,-0.503836,0.000963763
3.195e-06,-0.503132,0.000964256
3.205e-06,-0.501724,0.00096482
3.215e-06,-0.505244,0.000963974
3.225e-06,-0.502428,0.000964115
3.235e-06,-0.502428,0.000964256
3.245e-06,-0.50454,0.000963552
3.255e-06,-0.499611,0.000963552
3.265e-06,-0.502428,0.000963693
3.275e-06,-0.505244,0.000962917
3.285e-06,-0.500315,0.000963129
3.295e-06,-0.498907,0.00096327
3.305e-06,-0.499611,0.000962777
3.315e-06,-0.502428,0.00096179
3.325e-06,-0.50454,0.000962424
3.335e-06,-0.503836,0.000963552
3.345e-06,-0.503836,0.000964327
3.355e-06,-0.499611,0.000964679
3.365e-06,-0.50102,0.000964256
3.375e-06,-0.507357,0.000963622
3.385e-06,-0.503836,0.000963693
3.395e-06,-0.502428,0.00096334
3.405e-06,-0.505948,0.000962917
3.415e-06,-0.500315,0.00096327
3.425e-06,-0.505244,0.00096327
3.435e-06,-0.503836,0.000962847
3.445e-06,-0.50454,0.000962565
3.455e-06,-0.502428,0.000962706
3.465e-06,-0.505244,0.000963411
3.475e-06,-0.502428,0.00096334
3.485e-06,-0.500315,0.00096334
3.495e-06,-0.503836,0.000963693
3.505e-06,-0.50102,0.000963904
3.515e-06,-0.50102,0.000963411
3.525e-06,-0.502428,0.000962988
3.535e-06,-0.50454,0.000963129
3.545e-06,-0.505948,0.000962917
3.555e-06,-0.50102,0.000962495
3.565e-06,-0.503836,0.000962354
3.575e-06,-0.50454,0.000962988
3.585e-06,-0.503836,0.000962847
3.595e-06,-0.502428,0.00096327
3.605e-06,-0.50454,0.000962706
3.615e-06,-0.502428,0.000962565
3.625e-06,-0.505244,0.000962917
3.635e-06,-0.50454,0.000962495
3.645e-06,-0.505948,0.000962001
3.655e-06,-0.501724,0.00096172
3.665e-06,-0.50454,0.000961579
3.675e-06,-0.503132,0.00096186
3.685e-06,-0.505244,0.000962001
3.695e-06,-0.500315,0.000962847
3.705e-06,-0.502428,0.00096327
3.715e-06,-0.50102,0.000962847
3.725e-06,-0.501724,0.000962424
3.735e-06,-0.503836,0.000962283
3.745e-06,-0.503132,0.000962636
3.755e-06,-0.503132,0.000962706
3.765e-06,-0.503836,0.000962917
3.775e-06,-0.500315,0.000963622
3.785e-06,-0.503132,0.000964679
3.795e-06,-0.503836,0.000964397
3.805e-06,-0.499611,0.000964256
3.815e-06,-0.501724,0.000964397
3.825e-06,-0.501724,0.000963904
3.835e-06,-0.502428,0.000962847
3.845e-06,-0.503132,0.000962777
3.855e-06,-0.505948,0.000962636
3.865e-06,-0.503836,0.000962072
3.875e-06,-0.502428,0.000962917
3.885e-06,-0.503132,0.000962706
3.895e-06,-0.502428,0.000962777
3.905e-06,-0.503836,0.000963129
3.915e-06,-0.503836,0.000962988
3.925e-06,-0.505948,0.000963481
3.935e-06,-0.506653,0.000963552
3.945e-06,-0.502428,0.00096327
3.955e-06,-0.503132,0.000963481
3.965e-06,-0.505244,0.000963693
3.975e-06,-0.505948,0.000963199
3.985e-06,-0.50454,0.000962847
3.995e-06,-0.503132,0.000962072
4.005e-06,-0.503132,0.000962142
4.015e-06,-0.502428,0.000962283
4.025e-06,-0.501724,0.00096334
4.035e-06,-0.505244,0.000964327
4.045e-06,-0.506653,0.000964679
4.055e-06,-0.503132,0.000964468
4.065e-06,-0.502428,0.00096475
4.075e-06,-0.503836,0.000965102
4.085e-06,-0.50454,0.000964679
4.095e-06,-0.503132,0.000963693
4.105e-06,-0.501724,0.000962636
4.115e-06,-0.50454,0.000962636
4.125e-06,-0.503836,0.000962565
4.135e-06,-0.50454,0.000963129
4.145e-06,-0.501724,0.000963058
4.155e-06,-0.501724,0.000963481
4.165e-06,-0.50454,0.000963058
4.175e-06,-0.503836,0.00096327
4.185e-06,-0.505948,0.000963481
4.195e-06,-0.503132,0.000963763
4.205e-06,-0.506653,0.000964045
4.215e-06,-0.500315,0.00096489
4.225e-06,-0.503836,0.000963834
4.235e-06,-0.503836,0.000964045
4.245e-06,-0.503836,0.000963693
4.255e-06,-0.50454,0.000963904
4.265e-06,-0.502428,0.000963904
4.275e-06,-0.505244,0.000964115
4.285e-06,-0.502428,0.000964186
4.295e-06,-0.505244,0.000963763
4.305e-06,-0.502428,0.000963622
4.315e-06,-0.500315,0.000962777
4.325e-06,-0.50102,0.000962706
4.335e-06,-0.503132,0.000962777
4.345e-06,-0.50454,0.000963058
4.355e-06,-0.501724,0.000963199
4.365e-06,-0.501724,0.00096327
4.375e-06,-0.502428,0.000963904
4.385e-06,-0.503132,0.000963552
4.395e-06,-0.503132,0.000963693
4.405e-06,-0.50454,0.000963974
4.415e-06,-0.501724,0.000963481
4.425e-06,-0.501724,0.00096334
4.435e-06,-0.50454,0.000963763
4.445e-06,-0.50454,0.000964045
4.455e-06,-0.500315,0.000964256
4.465e-06,-0.50102,0.000963904
4.475e-06,-0.50102,0.000963974
4.485e-06,-0.503836,0.000963622
4.495e-06,-0.500315,0.000962777
4.505e-06,-0.503132,0.000961931
4.515e-06,-0.501724,0.00096179
4.525e-06,-0.502428,0.000962354
4.535e-06,-0.503836,0.000962706
4.545e-06,-0.503132,0.000962565
4.555e-06,-0.501724,0.000963974
4.565e-06,-0.505948,0.000964538
4.575e-06,-0.501724,0.000964609
4.585e-06,-0.502428,0.000965031
4.595e-06,-0.50102,0.00096489
4.605e-06,-0.502428,0.000964327
4.615e-06,-0.502428,0.000964256
4.625e-06,-0.498907,0.000964397
4.635e-06,-0.50454,0.000964045
4.645e-06,-0.501724,0.000963622
4.655e-06,-0.50454,0.000963622
4.665e-06,-0.502428,0.000964115
4.675e-06,-0.501724,0.00096489
4.685e-06,-0.502428,0.000965172
4.695e-06,-0.502428,0.000964115
4.705e-06,-0.503132,0.000963552
4.715e-06,-0.501724,0.000963622
4.725e-06,-0.503132,0.000963199
4.735e-06,-0.503132,0.000963622
4.745e-06,-0.502428,0.000963622
4.755e-06,-0.502428,0.000963693
4.765e-06,-0.502428,0.000964045
4.775e-06,-0.50454,0.000965172
4.785e-06,-0.502428,0.000965666
4.795e-06,-0.503836,0.000965807
4.805e-06,-0.503836,0.000966018
4.815e-06,-0.502428,0.000965595
4.825e-06,-0.502428,0.000965102
4.835e-06,-0.503132,0.000965243
4.845e-06,-0.503132,0.000966018
4.855e-06,-0.501724,0.000965807
4.865e-06,-0.503132,0.000965666
4.875e-06,-0.502428,0.000965384
4.885e-06,-0.50454,0.000965807
4.895e-06,-0.503836,0.000965947
4.905e-06,-0.500315,0.000965877
4.915e-06,-0.503132,0.000965243
4.925e-06,-0.505244,0.000964115
4.935e-06,-0.502428,0.000963763
4.945e-06,-0.502428,0.00096334
4.955e-06,-0.503836,0.000964045
4.965e-06,-0.500315,0.000964609
4.975e-06,-0.503132,0.000964679
4.985e-06,-0.503836,0.000963974
4.995e-06,-0.503836,0.000964256
5.005e-06,-0.503836,0.000964045
5.015e-06,-0.50454,0.000963904
5.025e-06,-0.503132,0.000964468
5.035e-06,-0.503836,0.000964609
5.045e-06,-0.503836,0.00096475
5.055e-06,-0.505244,0.000964256
5.065e-06,-0.502428,0.000964256
5.075e-06,-0.501724,0.000964397
5.085e-06,-0.505244,0.000964327
5.095e-06,-0.501724,0.00096327
5.105e-06,-0.502428,0.000963058
5.115e-06,-0.50102,0.000963481
5.125e-06,-0.50454,0.000964397
5.135e-06,-0.505244,0.000965313
5.145e-06,-0.503132,0.000965525
5.155e-06,-0.505948,0.00096482
5.165e-06,-0.501724,0.00096489
5.175e-06,-0.503132,0.00096482
5.185e-06,-0.499611,0.000965031
5.195e-06,-0.503132,0.000965525
5.205e-06,-0.501724,0.000964679
5.215e-06,-0.505244,0.000964468
5.225e-06,-0.503132,0.000963693
5.235e-06,-0.505244,0.000963622
5.245e-06,-0.503132,0.000963622
5.255e-06,-0.502428,0.000963481
5.265e-06,-0.499611,0.000963904
5.275e-06,-0.498907,0.000963974
5.285e-06,-0.503836,0.000964045
5.295e-06,-0.501724,0.000964256
5.305e-06,-0.505244,0.000964679
5.315e-06,-0.50102,0.000965525
5.325e-06,-0.50454,0.000965243
5.335e-06,-0.50102,0.000965172
5.345e-06,-0.50454,0.00096482
5.355e-06,-0.503132,0.000964256
5.365e-06,-0.501724,0.000964186
5.375e-06,-0.503836,0.000964327
5.385e-06,-0.503132,0.000963763
5.395e-06,-0.50102,0.00096327
5.405e-06,-0.503132,0.000963763
5.415e-06,-0.503132,0.000964468
5.425e-06,-0.501724,0.000964256
5.435e-06,-0.50454,0.000964045
5.445e-06,-0.502428,0.000963904
5.455e-06,-0.503836,0.000963834
5.465e-06,-0.501724,0.000963481
5.475e-06,-0.502428,0.000963199
5.485e-06,-0.50454,0.000962777
5.495e-06,-0.502428,0.000963622
5.505e-06,-0.503836,0.000964115
5.515e-06,-0.503836,0.000963763
5.525e-06,-0.501724,0.000963481
5.535e-06,-0.503836,0.000963693
5.545e-06,-0.503836,0.000963552
5.555e-06,-0.505244,0.000963199
5.565e-06,-0.502428,0.000963199
5.575e-06,-0.502428,0.000963129
5.585e-06,-0.498907,0.000963129
5.595e-06,-0.50454,0.000963552
5.605e-06,-0.503836,0.000963904
5.615e-06,-0.503836,0.000963693
5.625e-06,-0.503836,0.000963481
5.635e-06,-0.50454,0.000963693
5.645e-06,-0.503836,0.000963763
5.655e-06,-0.503132,0.000963904
5.665e-06,-0.503132,0.000963834
5.675e-06,-0.501724,0.000963199
5.685e-06,-0.503132,0.000962354
5.695e-06,-0.503836,0.000962636
5.705e-06,-0.500315,0.000963622
5.715e-06,-0.503836,0.000964115
5.725e-06,-0.503132,0.000963622
5.735e-06,-0.50454,0.000964327
5.745e-06,-0.500315,0.000964538
5.755e-06,-0.503836,0.000964186
5.765e-06,-0.502428,0.000963974
5.775e-06,-0.505244,0.000963834
5.785e-06,-0.50102,0.000963693
5.795e-06,-0.503836,0.000964256
5.805e-06,-0.505244,0.000964256
5.815e-06,-0.502428,0.000964186
5.825e-06,-0.505244,0.00096475
5.835e-06,-0.503132,0.000964609
5.845e-06,-0.502428,0.000964115
5.855e-06,-0.502428,0.000963622
5.865e-06,-0.50454,0.000963622
5.875e-06,-0.50454,0.000963129
5.885e-06,-0.503132,0.000962988
5.895e-06,-0.502428,0.000962565
5.905e-06,-0.502428,0.000962565
5.915e-06,-0.50102,0.00096172
5.925e-06,-0.471446,0.00096172
5.935e-06,-0.424973,0.000955519
5.945e-06,-0.367938,0.00091944
5.955e-06,-0.319352,0.000837489
5.965e-06,-0.268654,0.000714528
5.975e-06,-0.219365,0.000564578
5.985e-06,-0.172188,0.00040138
5.995e-06,-0.122194,0.000234942
6.005e-06,-0.0778334,6.97712e-05
6.015e-06,-0.0278396,-8.91982e-05
6.025e-06,-0.00178659,-0.000238655
6.035e-06,-0.00319486,-0.000372045
6.045e-06,-0.00460313,-0.000465764
6.055e-06,-0.00741968,-0.000502758
6.065e-06,-0.00953209,-0.000492118
6.075e-06,-0.00953209,-0.0004485
6.085e-06,-0.00671554,-0.000385857
6.095e-06,-0.003899,-0.00031363
6.105e-06,-0.003899,-0.000241685
6.115e-06,-0.00460313,-0.000173404
6.125e-06,-0.00319486,-0.000113086
6.135e-06,-0.00530727,-6.36898e-05
6.145e-06,-0.00460313,-2.40179e-05
6.155e-06,-0.00319486,4.80232e-06
6.165e-06,-0.00741968,2.4603e-05
6.175e-06,-0.00460313,3.62298e-05
6.185e-06,-0.00671554,4.11624e-05
6.195e-06,-0.00460313,4.17261e-05
6.205e-06,-0.00601141,4.01758e-05
6.215e-06,0.00807133,3.4891e-05
6.225e-06,0.166502,2.81263e-05
6.235e-06,0.431962,-1.11933e-05
6.245e-06,0.724178,-0.000215542
6.255e-06,1.00724,-0.000661728
6.265e-06,1.27833,-0.00114005
6.275e-06,1.54379,-0.00115069
6.285e-06,1.81348,-0.00115069
6.295e-06,2.07964,-0.00115069
6.305e-06,2.35073,-0.00115069
6.315e-06,2.60774,-0.00115069
6.325e-06,2.72956,-0.00115069
6.335e-06,2.73238,-0.00115069
6.345e-06,2.72111,-0.00115069
6.355e-06,2.71336,-0.00115069
