
Time,Voltage,Current
5e-09,0.00164379,-6.2953e-06
1.5e-08,0.00375458,3.69626e-06
2.5e-08,0.00234739,2.98258e-06
3.5e-08,0.000236607,-5.85836e-07
4.5e-08,0.00305098,1.55521e-06
5.5e-08,0.000940201,2.98258e-06
6.5e-08,0.000940201,8.41529e-07
7.5e-08,0.00375458,-4.15425e-06
8.5e-08,-0.000466987,8.69204e-06
9.5e-08,0.00164379,2.2689e-06
1.05e-07,-0.0384611,-5.85836e-07
1.15e-07,-0.283312,8.41529e-07
1.25e-07,-0.642848,0.000102184
1.35e-07,-0.993238,0.000460453
1.45e-07,-1.34433,0.000962886
1.55e-07,-1.69543,0.00149387
1.65e-07,-2.0423,0.00206838
1.75e-07,-2.39128,0.00267572
1.85e-07,-2.73745,0.00325666
1.95e-07,-3.09698,0.00381048
2.05e-07,-3.41642,0.00434432
2.15e-07,-3.52196,0.00483033
2.25e-07,-3.51562,0.00515363
2.35e-07,-3.50085,0.00514649
2.45e-07,-3.50296,0.0049331
2.55e-07,-3.49522,0.00462194
2.65e-07,-3.49311,0.00424868
2.75e-07,-3.49029,0.00386543
2.85e-07,-3.48466,0.0035193
2.95e-07,-3.48396,0.00322526
3.05e-07,-3.48255,0.00296263
3.15e-07,-3.47974,0.00271926
3.25e-07,-3.47904,0.00248303
3.35e-07,-3.47974,0.00226108
3.45e-07,-3.48044,0.00205553
3.55e-07,-3.47974,0.00189567
3.65e-07,-3.47693,0.00176792
3.75e-07,-3.48044,0.0016416
3.85e-07,-3.47904,0.00152027
3.95e-07,-3.47622,0.00140323
4.05e-07,-3.48255,0.0013026
4.15e-07,-3.47693,0.0012034
4.25e-07,-3.47693,0.00113988
4.35e-07,-3.47833,0.00108564
4.45e-07,-3.47693,0.00103069
4.55e-07,-3.47693,0.000978587
4.65e-07,-3.47693,0.000949326
4.75e-07,-3.47763,0.000928629
4.85e-07,-3.47904,0.000906505
4.95e-07,-3.47904,0.000893659
5.05e-07,-3.48115,0.00087653
5.15e-07,-3.47552,0.000859402
5.25e-07,-3.47974,0.00084156
5.35e-07,-3.48044,0.00083585
5.45e-07,-3.48115,0.000837991
5.55e-07,-3.48044,0.000832282
5.65e-07,-3.48115,0.000820863
5.75e-07,-3.47904,0.000825145
5.85e-07,-3.48044,0.000842987
5.95e-07,-3.48255,0.000860116
6.05e-07,-3.47974,0.000872248
6.15e-07,-3.47693,0.000887236
6.25e-07,-3.47833,0.000900082
6.35e-07,-3.47974,0.000904364
6.45e-07,-3.48115,0.000908646
6.55e-07,-3.48255,0.000907932
6.65e-07,-3.48185,0.000905078
6.75e-07,-3.48255,0.000902937
6.85e-07,-3.48115,0.000902937
6.95e-07,-3.48326,0.000905078
7.05e-07,-3.44878,0.000899368
7.15e-07,-3.2363,0.00089009
7.25e-07,-2.92812,0.000793743
7.35e-07,-2.62276,0.000476868
7.45e-07,-2.32092,3.01025e-05
7.55e-07,-2.02049,-0.000448065
7.65e-07,-1.72005,-0.000957635
7.75e-07,-1.42243,-0.00146792
7.85e-07,-1.12622,-0.00192682
7.95e-07,-0.824376,-0.00234075
8.05e-07,-0.561231,-0.00273756
8.15e-07,-0.473986,-0.00312438
8.25e-07,-0.482429,-0.00338487
8.35e-07,-0.489465,-0.00336275
8.45e-07,-0.493686,-0.00317719
8.55e-07,-0.497908,-0.00294881
8.65e-07,-0.499315,-0.0026719
8.75e-07,-0.498612,-0.00237715
8.85e-07,-0.50213,-0.00214663
8.95e-07,-0.506351,-0.00197392
9.05e-07,-0.507055,-0.0018269
9.15e-07,-0.505648,-0.0016863
9.25e-07,-0.504944,-0.00153358
9.35e-07,-0.506351,-0.00138299
9.45e-07,-0.505648,-0.00125167
9.55e-07,-0.507758,-0.00115176
9.65e-07,-0.506351,-0.00107682
9.75e-07,-0.507055,-0.000991891
9.85e-07,-0.507758,-0.000901254
9.95e-07,-0.506351,-0.000830599
1.005e-06,-0.504944,-0.000758517
1.015e-06,-0.504944,-0.000701422
1.025e-06,-0.507055,-0.000655033
1.035e-06,-0.505648,-0.000614353
1.045e-06,-0.506351,-0.000565823
1.055e-06,-0.504944,-0.00051301
1.065e-06,-0.507055,-0.000475899
1.075e-06,-0.503537,-0.000445924
1.085e-06,-0.505648,-0.000415236
1.095e-06,-0.50424,-0.000383834
1.105e-06,-0.508462,-0.000357427
1.115e-06,-0.504944,-0.000332448
1.125e-06,-0.50424,-0.000309611
1.135e-06,-0.50424,-0.000294623
1.145e-06,-0.504944,-0.000277495
1.155e-06,-0.503537,-0.000252516
1.165e-06,-0.506351,-0.000236101
1.175e-06,-0.502833,-0.000224682
1.185e-06,-0.503537,-0.000205413
1.195e-06,-0.502833,-0.000187571
1.205e-06,-0.500722,-0.000179007
1.215e-06,-0.502833,-0.000173297
1.225e-06,-0.505648,-0.000170442
1.235e-06,-0.50424,-0.000157596
1.245e-06,-0.503537,-0.000142609
1.255e-06,-0.50424,-0.000136899
1.265e-06,-0.50424,-0.000134758
1.275e-06,-0.504944,-0.000120485
1.285e-06,-0.506351,-0.000116202
1.295e-06,-0.506351,-0.000109779
1.305e-06,-0.50424,-0.000103356
1.315e-06,-0.505648,-9.83604e-05
1.325e-06,-0.502833,-9.62193e-05
1.335e-06,-0.50213,-9.26509e-05
1.345e-06,-0.50213,-8.40867e-05
1.355e-06,-0.500722,-7.55225e-05
1.365e-06,-0.502833,-7.12404e-05
1.375e-06,-0.501426,-6.7672e-05
1.385e-06,-0.503537,-7.19541e-05
1.395e-06,-0.50213,-6.98131e-05
1.405e-06,-0.50424,-6.19626e-05
1.415e-06,-0.50213,-5.83941e-05
1.425e-06,-0.50424,-6.33899e-05
1.435e-06,-0.499315,-6.05352e-05
1.445e-06,-0.50213,-5.4112e-05
1.455e-06,-0.501426,-4.62615e-05
1.465e-06,-0.501426,-4.48342e-05
1.475e-06,-0.500722,-5.1971e-05
1.485e-06,-0.502833,-5.1971e-05
1.495e-06,-0.50213,-4.62615e-05
1.505e-06,-0.499315,-3.76973e-05
1.515e-06,-0.501426,-4.12658e-05
1.525e-06,-0.501426,-4.48342e-05
1.535e-06,-0.500019,-3.69837e-05
1.545e-06,-0.500722,-3.91247e-05
1.555e-06,-0.500722,-3.55563e-05
1.565e-06,-0.497204,-3.41289e-05
1.575e-06,-0.500019,-3.69837e-05
1.585e-06,-0.497908,-3.27016e-05
1.595e-06,-0.497908,-2.98468e-05
1.605e-06,-0.498612,-3.05605e-05
1.615e-06,-0.501426,-3.55563e-05
1.625e-06,-0.500019,-2.91331e-05
1.635e-06,-0.498612,-3.05605e-05
1.645e-06,-0.499315,-3.627e-05
1.655e-06,-0.498612,-2.77058e-05
1.665e-06,-0.497908,-1.77142e-05
1.675e-06,-0.497908,-2.69921e-05
1.685e-06,-0.499315,-3.41289e-05
1.695e-06,-0.496501,-2.55647e-05
1.705e-06,-0.495797,-2.55647e-05
1.715e-06,-0.501426,-3.05605e-05
1.725e-06,-0.497204,-2.55647e-05
1.735e-06,-0.501426,-2.12826e-05
1.745e-06,-0.498612,-2.69921e-05
1.755e-06,-0.497908,-2.0569e-05
1.765e-06,-0.500019,-1.84279e-05
1.775e-06,-0.496501,-2.19963e-05
1.785e-06,-0.495094,-1.84279e-05
1.795e-06,-0.495797,-1.70005e-05
1.805e-06,-0.498612,-1.91416e-05
1.815e-06,-0.497908,-1.70005e-05
1.825e-06,-0.497908,-1.70005e-05
1.835e-06,-0.498612,-2.12826e-05
1.845e-06,-0.500722,-1.77142e-05
1.855e-06,-0.497908,-1.77142e-05
1.865e-06,-0.496501,-1.77142e-05
1.875e-06,-0.497908,-1.91416e-05
1.885e-06,-0.501426,-1.98553e-05
1.895e-06,-0.496501,-1.20048e-05
1.905e-06,-0.498612,-1.62869e-05
1.915e-06,-0.498612,-1.70005e-05
1.925e-06,-0.495094,-1.70005e-05
1.935e-06,-0.497908,-1.41458e-05
1.945e-06,-0.499315,-1.48595e-05
1.955e-06,-0.497204,-2.271e-05
1.965e-06,-0.496501,-1.62869e-05
1.975e-06,-0.497908,-1.55732e-05
1.985e-06,-0.497204,-9.15003e-06
1.995e-06,-0.496501,-8.43635e-06
2.005e-06,-0.497908,-1.62869e-05
2.015e-06,-0.498612,-1.70005e-05
2.025e-06,-0.499315,-1.70005e-05
2.035e-06,-0.497204,-1.12911e-05
2.045e-06,-0.498612,-1.20048e-05
2.055e-06,-0.498612,-1.62869e-05
2.065e-06,-0.499315,-1.27184e-05
2.075e-06,-0.496501,-1.41458e-05
2.085e-06,-0.497908,-1.12911e-05
2.095e-06,-0.497908,-1.12911e-05
2.105e-06,-0.498612,-1.41458e-05
2.115e-06,-0.497908,-1.12911e-05
2.125e-06,-0.495797,-1.12911e-05
2.135e-06,-0.497204,-1.34321e-05
2.145e-06,-0.497204,-1.20048e-05
2.155e-06,-0.495797,-1.20048e-05
2.165e-06,-0.500019,-1.41458e-05
2.175e-06,-0.497204,-1.62869e-05
2.185e-06,-0.495797,-1.12911e-05
2.195e-06,-0.497204,-1.05774e-05
2.205e-06,-0.495797,-7.72267e-06
2.215e-06,-0.495797,-8.43635e-06
2.225e-06,-0.498612,-9.15003e-06
2.235e-06,-0.497204,-1.27184e-05
2.245e-06,-0.497908,-7.72267e-06
2.255e-06,-0.497204,-9.15003e-06
2.265e-06,-0.497204,-1.05774e-05
2.275e-06,-0.496501,-1.27184e-05
2.285e-06,-0.497908,-4.15425e-06
2.295e-06,-0.495094,-4.86793e-06
2.305e-06,-0.495797,-5.58162e-06
2.315e-06,-0.495094,-9.15003e-06
2.325e-06,-0.497204,-8.43635e-06
2.335e-06,-0.497204,-1.05774e-05
2.345e-06,-0.497908,-9.15003e-06
2.355e-06,-0.498612,-7.00898e-06
2.365e-06,-0.499315,-7.00898e-06
2.375e-06,-0.498612,-7.72267e-06
2.385e-06,-0.497204,-7.72267e-06
2.395e-06,-0.500722,-7.72267e-06
2.405e-06,-0.497204,-1.05774e-05
2.415e-06,-0.498612,-1.12911e-05
2.425e-06,-0.496501,-1.20048e-05
2.435e-06,-0.498612,-1.05774e-05
2.445e-06,-0.497204,-4.86793e-06
2.455e-06,-0.498612,-2.72688e-06
2.465e-06,-0.497204,-6.2953e-06
2.475e-06,-0.497204,-5.58162e-06
2.485e-06,-0.496501,-5.58162e-06
2.495e-06,-0.497204,-2.0132e-06
2.505e-06,-0.497908,-7.00898e-06
2.515e-06,-0.496501,-4.86793e-06
2.525e-06,-0.497908,-3.44057e-06
2.535e-06,-0.497204,-2.0132e-06
2.545e-06,-0.497204,-7.00898e-06
2.555e-06,-0.496501,-4.15425e-06
2.565e-06,-0.499315,-1.05774e-05
2.575e-06,-0.497204,-8.43635e-06
2.585e-06,-0.496501,-5.85836e-07
2.595e-06,-0.496501,-1.29952e-06
2.605e-06,-0.495094,-1.12911e-05
2.615e-06,-0.495797,-1.05774e-05
2.625e-06,-0.496501,-8.43635e-06
2.635e-06,-0.497204,-6.2953e-06
2.645e-06,-0.498612,-4.86793e-06
2.655e-06,-0.49439,-2.72688e-06
2.665e-06,-0.497908,-1.12911e-05
2.675e-06,-0.493686,-1.05774e-05
2.685e-06,-0.495797,-4.15425e-06
2.695e-06,-0.496501,-4.86793e-06
2.705e-06,-0.500019,-2.72688e-06
2.715e-06,-0.495797,-5.58162e-06
2.725e-06,-0.49439,-7.72267e-06
2.735e-06,-0.495797,-7.72267e-06
2.745e-06,-0.499315,-3.44057e-06
2.755e-06,-0.495094,1.27847e-07
2.765e-06,-0.497204,2.2689e-06
2.775e-06,-0.498612,-2.72688e-06
2.785e-06,-0.495797,-2.0132e-06
2.795e-06,-0.499315,-7.00898e-06
2.805e-06,-0.499315,-6.2953e-06
2.815e-06,-0.497908,-9.86371e-06
2.825e-06,-0.499315,-1.12911e-05
2.835e-06,-0.500722,2.2689e-06
2.845e-06,-0.497908,8.41529e-07
2.855e-06,-0.495094,-9.15003e-06
2.865e-06,-0.499315,-1.34321e-05
2.875e-06,-0.499315,-9.15003e-06
2.885e-06,-0.497908,8.41529e-07
2.895e-06,-0.498612,3.69626e-06
2.905e-06,-0.497908,1.55521e-06
2.915e-06,-0.497908,-1.05774e-05
2.925e-06,-0.495094,-1.48595e-05
2.935e-06,-0.495797,-9.86371e-06
2.945e-06,-0.497204,-2.72688e-06
2.955e-06,-0.499315,1.55521e-06
2.965e-06,-0.500019,-1.29952e-06
2.975e-06,-0.501426,-5.58162e-06
2.985e-06,-0.499315,-4.86793e-06
2.995e-06,-0.497908,-9.15003e-06
3.005e-06,-0.497204,-6.2953e-06
3.015e-06,-0.495094,-4.86793e-06
3.025e-06,-0.497908,-8.43635e-06
3.035e-06,-0.500019,-7.00898e-06
3.045e-06,-0.498612,-2.72688e-06
3.055e-06,-0.500722,-5.85836e-07
3.065e-06,-0.499315,-4.86793e-06
3.075e-06,-0.496501,-1.12911e-05
3.085e-06,-0.497908,-5.58162e-06
3.095e-06,-0.501426,-5.58162e-06
3.105e-06,-0.500019,-4.15425e-06
3.115e-06,-0.500722,-8.43635e-06
3.125e-06,-0.496501,-9.86371e-06
3.135e-06,-0.497204,-4.86793e-06
3.145e-06,-0.499315,1.55521e-06
3.155e-06,-0.500722,-1.29952e-06
3.165e-06,-0.498612,1.27847e-07
3.175e-06,-0.496501,-6.2953e-06
3.185e-06,-0.500019,-4.86793e-06
3.195e-06,-0.497204,-2.0132e-06
3.205e-06,-0.496501,-7.72267e-06
3.215e-06,-0.498612,-9.15003e-06
3.225e-06,-0.496501,-2.0132e-06
3.235e-06,-0.499315,-4.15425e-06
3.245e-06,-0.500019,1.27847e-07
3.255e-06,-0.496501,-2.0132e-06
3.265e-06,-0.496501,-1.05774e-05
3.275e-06,-0.497908,-1.12911e-05
3.285e-06,-0.500019,-5.85836e-07
3.295e-06,-0.497908,1.27847e-07
3.305e-06,-0.499315,-3.44057e-06
3.315e-06,-0.497908,-3.44057e-06
3.325e-06,-0.498612,-7.00898e-06
3.335e-06,-0.497204,-6.2953e-06
3.345e-06,-0.500019,3.69626e-06
3.355e-06,-0.497204,8.41529e-07
3.365e-06,-0.49439,-2.0132e-06
3.375e-06,-0.499315,-4.15425e-06
3.385e-06,-0.495797,2.98258e-06
3.395e-06,-0.497908,4.40994e-06
3.405e-06,-0.500722,-7.00898e-06
3.415e-06,-0.496501,-7.72267e-06
3.425e-06,-0.497204,-5.58162e-06
3.435e-06,-0.498612,-5.58162e-06
3.445e-06,-0.501426,-1.29952e-06
3.455e-06,-0.497908,-5.58162e-06
3.465e-06,-0.497908,-6.2953e-06
3.475e-06,-0.500722,-1.05774e-05
3.485e-06,-0.496501,-4.86793e-06
3.495e-06,-0.499315,-5.85836e-07
3.505e-06,-0.499315,1.27847e-07
3.515e-06,-0.497204,-9.15003e-06
3.525e-06,-0.496501,-8.43635e-06
3.535e-06,-0.495797,-5.58162e-06
3.545e-06,-0.497204,1.27847e-07
3.555e-06,-0.498612,-1.29952e-06
3.565e-06,-0.497204,-1.29952e-06
3.575e-06,-0.499315,-7.72267e-06
3.585e-06,-0.497908,-2.0132e-06
3.595e-06,-0.498612,2.2689e-06
3.605e-06,-0.496501,-5.58162e-06
3.615e-06,-0.497204,-3.44057e-06
3.625e-06,-0.49439,-1.05774e-05
3.635e-06,-0.498612,-5.58162e-06
3.645e-06,-0.496501,1.55521e-06
3.655e-06,-0.496501,2.98258e-06
3.665e-06,-0.496501,-4.86793e-06
3.675e-06,-0.499315,-1.27184e-05
3.685e-06,-0.497204,-7.00898e-06
3.695e-06,-0.496501,1.27847e-07
3.705e-06,-0.497908,1.27847e-07
3.715e-06,-0.500019,-6.2953e-06
3.725e-06,-0.497204,-8.43635e-06
3.735e-06,-0.495094,-4.15425e-06
3.745e-06,-0.497204,-5.85836e-07
3.755e-06,-0.497204,-1.29952e-06
3.765e-06,-0.499315,-3.44057e-06
3.775e-06,-0.496501,-1.29952e-06
3.785e-06,-0.495797,-1.29952e-06
3.795e-06,-0.495797,-6.2953e-06
3.805e-06,-0.496501,-4.86793e-06
3.815e-06,-0.497908,1.27847e-07
3.825e-06,-0.497908,-3.44057e-06
3.835e-06,-0.498612,-3.44057e-06
3.845e-06,-0.497204,-3.44057e-06
3.855e-06,-0.493686,-5.58162e-06
3.865e-06,-0.496501,-3.44057e-06
3.875e-06,-0.497204,-5.85836e-07
3.885e-06,-0.498612,1.55521e-06
3.895e-06,-0.496501,-4.86793e-06
3.905e-06,-0.497908,-7.00898e-06
3.915e-06,-0.497908,-7.00898e-06
3.925e-06,-0.498612,-3.44057e-06
3.935e-06,-0.49439,4.40994e-06
3.945e-06,-0.495797,1.27847e-07
3.955e-06,-0.497204,-4.15425e-06
3.965e-06,-0.496501,-8.43635e-06
3.975e-06,-0.497908,-5.58162e-06
3.985e-06,-0.497908,-2.72688e-06
3.995e-06,-0.495797,3.69626e-06
4.005e-06,-0.497204,-5.85836e-07
4.015e-06,-0.496501,-1.05774e-05
4.025e-06,-0.497204,-9.15003e-06
4.035e-06,-0.495797,-5.85836e-07
4.045e-06,-0.496501,9.40572e-06
4.055e-06,-0.495797,-7.00898e-06
4.065e-06,-0.497908,-4.15425e-06
4.075e-06,-0.497908,-2.0132e-06
4.085e-06,-0.497204,-1.05774e-05
4.095e-06,-0.497204,-7.00898e-06
4.105e-06,-0.495797,2.2689e-06
4.115e-06,-0.497204,1.55521e-06
4.125e-06,-0.499315,-5.58162e-06
4.135e-06,-0.497204,1.27847e-07
4.145e-06,-0.49439,-5.85836e-07
4.155e-06,-0.497908,-8.43635e-06
4.165e-06,-0.496501,-2.0132e-06
4.175e-06,-0.499315,8.41529e-07
4.185e-06,-0.497908,-2.72688e-06
4.195e-06,-0.495797,-7.72267e-06
4.205e-06,-0.496501,-3.44057e-06
4.215e-06,-0.498612,-2.72688e-06
4.225e-06,-0.495797,1.27847e-07
4.235e-06,-0.497908,-5.85836e-07
4.245e-06,-0.496501,-7.00898e-06
4.255e-06,-0.495797,-9.86371e-06
4.265e-06,-0.495797,-1.29952e-06
4.275e-06,-0.496501,-5.85836e-07
4.285e-06,-0.497908,-4.15425e-06
4.295e-06,-0.495094,-5.85836e-07
4.305e-06,-0.493686,-2.72688e-06
4.315e-06,-0.497908,-2.0132e-06
4.325e-06,-0.496501,-3.44057e-06
4.335e-06,-0.495094,-1.29952e-06
4.345e-06,-0.497204,1.27847e-07
4.355e-06,-0.497908,-3.44057e-06
4.365e-06,-0.495094,-2.0132e-06
4.375e-06,-0.497908,-2.0132e-06
4.385e-06,-0.495797,1.27847e-07
4.395e-06,-0.496501,-5.85836e-07
4.405e-06,-0.496501,-4.15425e-06
4.415e-06,-0.496501,-6.2953e-06
4.425e-06,-0.497204,-2.0132e-06
4.435e-06,-0.497204,1.55521e-06
4.445e-06,-0.498612,-1.29952e-06
4.455e-06,-0.500019,-6.2953e-06
4.465e-06,-0.495797,-6.2953e-06
4.475e-06,-0.495094,3.69626e-06
4.485e-06,-0.496501,2.2689e-06
4.495e-06,-0.497204,5.12363e-06
4.505e-06,-0.495797,-4.15425e-06
4.515e-06,-0.497908,-8.43635e-06
4.525e-06,-0.495797,-7.72267e-06
4.535e-06,-0.495094,-7.72267e-06
4.545e-06,-0.498612,-4.15425e-06
4.555e-06,-0.495094,-1.29952e-06
4.565e-06,-0.497908,2.98258e-06
4.575e-06,-0.491576,-1.29952e-06
4.585e-06,-0.495797,-1.12911e-05
4.595e-06,-0.496501,-1.20048e-05
4.605e-06,-0.495094,-2.72688e-06
4.615e-06,-0.495094,7.26467e-06
4.625e-06,-0.497204,7.26467e-06
4.635e-06,-0.497204,-2.0132e-06
4.645e-06,-0.497908,-5.58162e-06
4.655e-06,-0.497908,-6.2953e-06
4.665e-06,-0.497908,-7.00898e-06
4.675e-06,-0.497204,-5.85836e-07
4.685e-06,-0.496501,6.55099e-06
4.695e-06,-0.495094,5.12363e-06
4.705e-06,-0.497204,-2.72688e-06
4.715e-06,-0.497204,-9.86371e-06
4.725e-06,-0.497204,-5.58162e-06
4.735e-06,-0.497908,1.27847e-07
4.745e-06,-0.497908,-5.85836e-07
4.755e-06,-0.497908,1.27847e-07
4.765e-06,-0.497908,3.69626e-06
4.775e-06,-0.497908,1.55521e-06
4.785e-06,-0.497908,-1.29952e-06
4.795e-06,-0.49439,-7.72267e-06
4.805e-06,-0.498612,-4.15425e-06
4.815e-06,-0.49439,1.27847e-07
4.825e-06,-0.496501,2.2689e-06
4.835e-06,-0.497908,8.41529e-07
4.845e-06,-0.497908,-5.58162e-06
4.855e-06,-0.49439,-7.00898e-06
4.865e-06,-0.495797,-3.44057e-06
4.875e-06,-0.496501,-1.29952e-06
4.885e-06,-0.497908,2.98258e-06
4.895e-06,-0.498612,8.41529e-07
4.905e-06,-0.498612,3.69626e-06
4.915e-06,-0.497908,2.98258e-06
4.925e-06,-0.49439,-1.29952e-06
4.935e-06,-0.498612,-2.72688e-06
4.945e-06,-0.497204,-6.2953e-06
4.955e-06,-0.497204,-1.29952e-06
4.965e-06,-0.497204,2.2689e-06
4.975e-06,-0.498612,-1.29952e-06
4.985e-06,-0.496501,-2.0132e-06
4.995e-06,-0.497204,-2.72688e-06
5.005e-06,-0.498612,-9.15003e-06
5.015e-06,-0.496501,-5.85836e-07
5.025e-06,-0.497908,2.2689e-06
5.035e-06,-0.496501,1.27847e-07
5.045e-06,-0.497908,-2.0132e-06
5.055e-06,-0.496501,-1.29952e-06
5.065e-06,-0.496501,-2.72688e-06
5.075e-06,-0.497204,-2.0132e-06
5.085e-06,-0.498612,-3.44057e-06
5.095e-06,-0.496501,8.41529e-07
5.105e-06,-0.498612,-2.0132e-06
5.115e-06,-0.497908,-2.72688e-06
5.125e-06,-0.499315,-4.15425e-06
5.135e-06,-0.500019,-5.58162e-06
5.145e-06,-0.497908,-1.29952e-06
5.155e-06,-0.498612,-2.0132e-06
5.165e-06,-0.498612,-5.85836e-07
5.175e-06,-0.496501,1.55521e-06
5.185e-06,-0.496501,-5.85836e-07
5.195e-06,-0.500019,-7.00898e-06
5.205e-06,-0.496501,-7.00898e-06
5.215e-06,-0.495797,-5.85836e-07
5.225e-06,-0.497908,8.41529e-07
5.235e-06,-0.495797,-1.29952e-06
5.245e-06,-0.497204,8.41529e-07
5.255e-06,-0.498612,1.27847e-07
5.265e-06,-0.498612,-1.29952e-06
5.275e-06,-0.500722,-1.29952e-06
5.285e-06,-0.495797,5.12363e-06
5.295e-06,-0.497908,1.55521e-06
5.305e-06,-0.501426,-2.72688e-06
5.315e-06,-0.496501,-2.72688e-06
5.325e-06,-0.497908,-5.85836e-07
5.335e-06,-0.497204,-4.86793e-06
5.345e-06,-0.500722,-4.15425e-06
5.355e-06,-0.497908,1.27847e-07
5.365e-06,-0.497908,-2.0132e-06
5.375e-06,-0.496501,-1.29952e-06
5.385e-06,-0.495094,-2.0132e-06
5.395e-06,-0.499315,-2.0132e-06
5.405e-06,-0.500722,2.2689e-06
5.415e-06,-0.497204,1.55521e-06
5.425e-06,-0.499315,2.2689e-06
5.435e-06,-0.495094,8.41529e-07
5.445e-06,-0.499315,-2.72688e-06
5.455e-06,-0.497908,1.27847e-07
5.465e-06,-0.498612,-5.85836e-07
5.475e-06,-0.497204,-2.72688e-06
5.485e-06,-0.497908,-4.15425e-06
5.495e-06,-0.496501,1.27847e-07
5.505e-06,-0.496501,-2.72688e-06
5.515e-06,-0.496501,-3.44057e-06
5.525e-06,-0.497204,2.98258e-06
5.535e-06,-0.498612,-2.72688e-06
5.545e-06,-0.500722,-1.29952e-06
5.555e-06,-0.496501,1.55521e-06
5.565e-06,-0.500019,1.55521e-06
5.575e-06,-0.500019,-4.86793e-06
5.585e-06,-0.496501,-2.0132e-06
5.595e-06,-0.500019,1.27847e-07
5.605e-06,-0.497204,-2.0132e-06
5.615e-06,-0.501426,-2.72688e-06
5.625e-06,-0.496501,-5.85836e-07
5.635e-06,-0.496501,-3.44057e-06
5.645e-06,-0.498612,-1.29952e-06
5.655e-06,-0.496501,-2.0132e-06
5.665e-06,-0.499315,-1.29952e-06
5.675e-06,-0.499315,2.2689e-06
5.685e-06,-0.501426,-2.0132e-06
5.695e-06,-0.497908,-5.85836e-07
5.705e-06,-0.499315,-4.15425e-06
5.715e-06,-0.496501,2.2689e-06
5.725e-06,-0.500019,1.27847e-07
5.735e-06,-0.497204,-1.29952e-06
5.745e-06,-0.496501,1.27847e-07
5.755e-06,-0.498612,-1.29952e-06
5.765e-06,-0.497204,-2.72688e-06
5.775e-06,-0.498612,-5.58162e-06
5.785e-06,-0.497908,8.41529e-07
5.795e-06,-0.499315,-1.29952e-06
5.805e-06,-0.492983,1.27847e-07
5.815e-06,-0.457803,8.41529e-07
5.825e-06,-0.403626,-1.98553e-05
5.835e-06,-0.354375,-6.98131e-05
5.845e-06,-0.302309,-0.000134045
5.855e-06,-0.253057,-0.000216832
5.865e-06,-0.202398,-0.000304615
5.875e-06,-0.154554,-0.00038312
5.885e-06,-0.104599,-0.000440928
5.895e-06,-0.0532365,-0.000506587
5.905e-06,-0.0103173,-0.000565109
5.915e-06,0.00234739,-0.000624345
5.925e-06,0.00234739,-0.00066217
5.935e-06,0.00234739,-0.000660742
5.945e-06,-0.000466987,-0.000630054
5.955e-06,-0.00187418,-0.000597938
5.965e-06,-0.000466987,-0.000552263
5.975e-06,0.000236607,-0.000512296
5.985e-06,0.00164379,-0.000468762
5.995e-06,-0.000466987,-0.000440928
6.005e-06,-0.00257777,-0.000413808
6.015e-06,-0.00187418,-0.000379551
6.025e-06,-0.00187418,-0.00035029
6.035e-06,0.000236607,-0.000324598
6.045e-06,-0.00117058,-0.00030176
6.055e-06,-0.00328136,-0.000276067
6.065e-06,-0.00328136,-0.000263935
6.075e-06,-0.00187418,-0.00024752
6.085e-06,-0.00187418,-0.000227537
6.095e-06,-0.00257777,-0.000206126
6.105e-06,-0.0440898,-0.000195421
6.115e-06,-0.292459,-0.000176865
6.125e-06,-0.648477,-6.05352e-05
6.135e-06,-1.00309,0.00031843
6.145e-06,-1.35489,0.000837991
6.155e-06,-1.70598,0.00139395
6.165e-06,-2.05215,0.00200201
6.175e-06,-2.39761,0.00261363
6.185e-06,-2.74519,0.0031753
