
Time,Voltage,Current
5e-09,0.00375458,1.68367e-06
1.5e-08,-0.000466987,2.62091e-06
2.5e-08,0.00375458,2.18834e-06
3.5e-08,0.00305098,2.11625e-06
4.5e-08,0.00164379,2.40463e-06
5.5e-08,-0.00117058,3.48605e-06
6.5e-08,0.000236607,2.98139e-06
7.5e-08,0.000236607,1.53948e-06
8.5e-08,-0.00257777,5.3015e-07
9.5e-08,0.000940201,7.46436e-07
1.05e-07,-0.0398683,1.53948e-06
1.15e-07,-0.284719,1.82786e-06
1.25e-07,-0.641441,2.22308e-05
1.35e-07,-0.991831,0.000118334
1.45e-07,-1.34081,0.000319696
1.55e-07,-1.69683,0.000628768
1.65e-07,-2.04863,0.00103661
1.75e-07,-2.39761,0.00118102
1.85e-07,-2.748,0.00118102
1.95e-07,-3.09558,0.00118102
2.05e-07,-3.40234,0.00118102
2.15e-07,-3.51773,0.00118102
2.25e-07,-3.51281,0.00118102
2.35e-07,-3.49592,0.00118102
2.45e-07,-3.4924,0.00118102
2.55e-07,-3.491,0.00118102
2.65e-07,-3.48959,0.00118102
2.75e-07,-3.47833,0.00118102
2.85e-07,-3.47974,0.00118102
2.95e-07,-3.47693,0.00118102
3.05e-07,-3.47622,0.00118102
3.15e-07,-3.47763,0.00118102
3.25e-07,-3.48044,0.00118102
3.35e-07,-3.48678,0.00118102
3.45e-07,-3.47481,0.00118102
3.55e-07,-3.47622,0.00118102
3.65e-07,-3.47693,0.00118102
3.75e-07,-3.47693,0.00118102
3.85e-07,-3.47693,0.00118102
3.95e-07,-3.47833,0.00118102
4.05e-07,-3.48044,0.00118102
4.15e-07,-3.47904,0.00118102
4.25e-07,-3.47763,0.00118102
4.35e-07,-3.47904,0.00118102
4.45e-07,-3.47974,0.00118102
4.55e-07,-3.47622,0.00118102
4.65e-07,-3.47974,0.00118102
4.75e-07,-3.48115,0.00118102
4.85e-07,-3.47974,0.00118102
4.95e-07,-3.48115,0.00118102
5.05e-07,-3.47974,0.00118102
5.15e-07,-3.48044,0.00118102
5.25e-07,-3.48044,0.00118102
5.35e-07,-3.48255,0.00118102
5.45e-07,-3.48396,0.00118102
5.55e-07,-3.48396,0.00118102
5.65e-07,-3.48326,0.00118102
5.75e-07,-3.48537,0.00118102
5.85e-07,-3.48326,0.00118102
5.95e-07,-3.48466,0.00118102
6.05e-07,-3.48396,0.00118102
6.15e-07,-3.48466,0.00118102
6.25e-07,-3.48326,0.00118102
6.35e-07,-3.48607,0.00118102
6.45e-07,-3.48466,0.00118102
6.55e-07,-3.48396,0.00118102
6.65e-07,-3.48466,0.00118102
6.75e-07,-3.48466,0.00118102
6.85e-07,-3.48396,0.00118102
6.95e-07,-3.48396,0.00118102
7.05e-07,-3.45441,0.00118102
7.15e-07,-3.27992,0.00118102
7.25e-07,-3.02592,0.00118102
7.35e-07,-2.7677,0.00118102
7.45e-07,-2.51722,0.00118102
7.55e-07,-2.26674,0.00118102
7.65e-07,-2.01415,0.000966173
7.75e-07,-1.7679,0.00053043
7.85e-07,-1.51953,6.22437e-05
7.95e-07,-1.26975,-0.000408827
8.05e-07,-1.05304,-0.000867568
8.15e-07,-0.980574,-0.00117505
8.25e-07,-0.988313,-0.00117505
8.35e-07,-0.993238,-0.00117505
8.45e-07,-0.994645,-0.00117505
8.55e-07,-0.998867,-0.00117505
8.65e-07,-1.00168,-0.00117505
8.75e-07,-1.00238,-0.00117505
8.85e-07,-0.998163,-0.00117505
8.95e-07,-1.00098,-0.00117505
9.05e-07,-0.998163,-0.00117505
9.15e-07,-0.998867,-0.00117505
9.25e-07,-1.00098,-0.00116316
9.35e-07,-1.00238,-0.00104002
9.45e-07,-1.00098,-0.000905779
9.55e-07,-0.998867,-0.00079122
9.65e-07,-1.00168,-0.000697352
9.75e-07,-1.00168,-0.000618696
9.85e-07,-1.0052,-0.00055107
9.95e-07,-1.00098,-0.000492024
1.005e-06,-1.0052,-0.000439179
1.015e-06,-1.00661,-0.000391884
1.025e-06,-1.00379,-0.000349348
1.035e-06,-1.0045,-0.000313156
1.045e-06,-1.00309,-0.000282516
1.055e-06,-1.0052,-0.000253966
1.065e-06,-1.00379,-0.000226353
1.075e-06,-1.00309,-0.000201336
1.085e-06,-1.0059,-0.000179059
1.095e-06,-1.0045,-0.000158944
1.105e-06,-1.00238,-0.000141642
1.115e-06,-1.00379,-0.000125853
1.125e-06,-1.0045,-0.000111145
1.135e-06,-1.00309,-9.71589e-05
1.145e-06,-1.0052,-8.69213e-05
1.155e-06,-1.00379,-7.67559e-05
1.165e-06,-1.0045,-6.60858e-05
1.175e-06,-1.00168,-5.72902e-05
1.185e-06,-1.00027,-4.93597e-05
1.195e-06,-1.00098,-4.14293e-05
1.205e-06,-1.00168,-3.56617e-05
1.215e-06,-1.0045,-3.03266e-05
1.225e-06,-1.00098,-2.3838e-05
1.235e-06,-1.00309,-1.72774e-05
1.245e-06,-1.00027,-1.19423e-05
1.255e-06,-1.00238,-7.7608e-06
1.265e-06,-0.999571,-5.45375e-06
1.275e-06,-1.00168,-3.00252e-06
1.285e-06,-1.00027,7.46436e-07
1.295e-06,-1.00027,5.00005e-06
1.305e-06,-1.00238,8.24434e-06
1.315e-06,-1.00098,1.15607e-05
1.325e-06,-1.00168,1.30747e-05
1.335e-06,-1.00098,1.31468e-05
1.345e-06,-0.998867,1.48771e-05
1.355e-06,-0.996053,1.76167e-05
1.365e-06,-1.00168,2.0861e-05
1.375e-06,-0.998867,2.3096e-05
1.385e-06,-0.996756,2.42495e-05
1.395e-06,-1.00238,2.47541e-05
1.405e-06,-0.999571,2.461e-05
1.415e-06,-1.00027,2.64123e-05
1.425e-06,-1.00098,2.77821e-05
1.435e-06,-1.00238,2.87194e-05
1.445e-06,-0.999571,2.8431e-05
1.455e-06,-0.99746,2.81426e-05
1.465e-06,-1.00168,2.94403e-05
1.475e-06,-0.99746,3.03776e-05
1.485e-06,-1.00027,3.21079e-05
1.495e-06,-1.00027,3.24683e-05
1.505e-06,-0.998867,3.33335e-05
1.515e-06,-1.00098,3.4487e-05
1.525e-06,-1.00098,3.61452e-05
1.535e-06,-0.996756,3.7515e-05
1.545e-06,-1.00168,3.72266e-05
1.555e-06,-0.995349,3.70103e-05
1.565e-06,-1.00027,3.79476e-05
1.575e-06,-0.998163,3.9822e-05
1.585e-06,-0.996756,4.03988e-05
1.595e-06,-0.999571,3.98941e-05
1.605e-06,-0.998867,3.96058e-05
1.615e-06,-0.99746,3.93174e-05
1.625e-06,-1.00098,4.02546e-05
1.635e-06,-0.999571,4.08314e-05
1.645e-06,-0.99746,4.01104e-05
1.655e-06,-1.00027,3.98941e-05
1.665e-06,-0.99746,4.09035e-05
1.675e-06,-0.999571,4.15523e-05
1.685e-06,-0.998867,4.08314e-05
1.695e-06,-1.00027,4.04709e-05
1.705e-06,-0.99746,4.0543e-05
1.715e-06,-0.99746,4.19128e-05
1.725e-06,-0.998867,4.26338e-05
1.735e-06,-0.999571,4.2057e-05
1.745e-06,-0.998163,4.11198e-05
1.755e-06,-0.996053,4.09756e-05
1.765e-06,-0.99746,4.22733e-05
1.775e-06,-0.995349,4.34989e-05
1.785e-06,-0.99746,4.48687e-05
1.795e-06,-0.998163,4.42919e-05
1.805e-06,-0.996053,4.34268e-05
1.815e-06,-0.99746,4.22012e-05
1.825e-06,-0.99746,4.2057e-05
1.835e-06,-0.994645,4.32105e-05
1.845e-06,-0.996053,4.32826e-05
1.855e-06,-0.99746,4.3571e-05
1.865e-06,-0.998163,4.40757e-05
1.875e-06,-0.99746,4.45803e-05
1.885e-06,-0.996756,4.60943e-05
1.895e-06,-0.996053,4.68153e-05
1.905e-06,-0.996756,4.59501e-05
1.915e-06,-0.999571,4.53734e-05
1.925e-06,-0.996053,4.53734e-05
1.935e-06,-0.995349,4.59501e-05
1.945e-06,-0.996053,4.68874e-05
1.955e-06,-0.99746,4.66711e-05
1.965e-06,-0.994645,4.52292e-05
1.975e-06,-0.995349,4.47245e-05
1.985e-06,-0.998163,4.44361e-05
1.995e-06,-0.998163,4.48687e-05
2.005e-06,-0.995349,4.55897e-05
2.015e-06,-0.999571,4.59501e-05
2.025e-06,-0.996756,4.5878e-05
2.035e-06,-0.995349,4.5878e-05
2.045e-06,-0.996053,4.51571e-05
2.055e-06,-0.996053,4.45803e-05
2.065e-06,-0.996756,4.5085e-05
2.075e-06,-0.996053,4.61664e-05
2.085e-06,-0.996756,4.76083e-05
2.095e-06,-0.998163,4.69595e-05
2.105e-06,-0.996756,4.54455e-05
2.115e-06,-0.995349,4.29221e-05
2.125e-06,-0.998163,4.31384e-05
2.135e-06,-0.996756,4.54455e-05
2.145e-06,-0.99746,4.87619e-05
2.155e-06,-0.996053,5.01317e-05
2.165e-06,-0.996756,4.94107e-05
2.175e-06,-0.996756,4.68874e-05
2.185e-06,-0.995349,4.59501e-05
2.195e-06,-0.99746,4.59501e-05
2.205e-06,-0.996053,4.7392e-05
2.215e-06,-0.995349,4.91944e-05
2.225e-06,-0.996053,4.9627e-05
2.235e-06,-0.998163,4.85456e-05
2.245e-06,-0.996053,4.63827e-05
2.255e-06,-0.995349,4.50129e-05
2.265e-06,-0.996053,4.57339e-05
2.275e-06,-0.995349,4.71037e-05
2.285e-06,-0.996756,4.87619e-05
2.295e-06,-0.994645,4.78967e-05
2.305e-06,-0.99746,4.67432e-05
2.315e-06,-0.995349,4.60222e-05
2.325e-06,-0.99746,4.61664e-05
2.335e-06,-0.998163,4.7392e-05
2.345e-06,-0.996756,4.87619e-05
2.355e-06,-0.996053,4.91223e-05
2.365e-06,-0.998163,4.86177e-05
2.375e-06,-0.996756,4.8113e-05
2.385e-06,-0.995349,4.7392e-05
2.395e-06,-0.995349,4.68153e-05
2.405e-06,-0.994645,4.76083e-05
2.415e-06,-0.99746,4.92665e-05
2.425e-06,-0.995349,5.03479e-05
2.435e-06,-0.996053,5.03479e-05
2.445e-06,-0.998163,4.87619e-05
2.455e-06,-0.996053,4.71758e-05
2.465e-06,-0.998163,4.67432e-05
2.475e-06,-0.993942,4.76804e-05
2.485e-06,-0.994645,4.84014e-05
2.495e-06,-0.996053,4.88339e-05
2.505e-06,-0.996756,4.78246e-05
2.515e-06,-1.00098,4.67432e-05
2.525e-06,-0.996053,4.68153e-05
2.535e-06,-0.99746,4.79688e-05
2.545e-06,-0.996053,4.83293e-05
2.555e-06,-0.994645,4.8113e-05
2.565e-06,-0.998867,4.84014e-05
2.575e-06,-0.998867,4.91944e-05
2.585e-06,-0.996756,5.00596e-05
2.595e-06,-0.994645,4.89781e-05
2.605e-06,-0.998867,4.86177e-05
2.615e-06,-0.996053,4.9627e-05
2.625e-06,-0.99746,4.98433e-05
2.635e-06,-0.994645,4.92665e-05
2.645e-06,-0.99746,4.98433e-05
2.655e-06,-0.996053,4.94828e-05
2.665e-06,-0.999571,4.78967e-05
2.675e-06,-0.996756,4.81851e-05
2.685e-06,-0.998163,4.95549e-05
2.695e-06,-0.996053,4.8906e-05
2.705e-06,-0.996756,4.98433e-05
2.715e-06,-0.996756,5.01317e-05
2.725e-06,-0.996053,4.92665e-05
2.735e-06,-0.996756,4.8113e-05
2.745e-06,-0.995349,4.92665e-05
2.755e-06,-0.996053,5.00596e-05
2.765e-06,-0.996053,4.99875e-05
2.775e-06,-0.996756,4.89781e-05
2.785e-06,-0.99746,4.74641e-05
2.795e-06,-0.996756,4.73199e-05
2.805e-06,-0.994645,4.80409e-05
2.815e-06,-0.994645,4.90502e-05
2.825e-06,-0.998163,4.91223e-05
2.835e-06,-0.998163,4.94107e-05
2.845e-06,-0.996053,5.05642e-05
2.855e-06,-0.998163,5.00596e-05
2.865e-06,-0.998163,4.98433e-05
2.875e-06,-0.99746,4.89781e-05
2.885e-06,-0.99746,4.87619e-05
2.895e-06,-0.996756,4.91223e-05
2.905e-06,-0.994645,5.02759e-05
2.915e-06,-0.996756,5.05642e-05
2.925e-06,-0.998867,4.95549e-05
2.935e-06,-0.995349,4.91944e-05
2.945e-06,-0.996756,4.97712e-05
2.955e-06,-0.996756,5.00596e-05
2.965e-06,-0.998163,5.00596e-05
2.975e-06,-0.995349,4.98433e-05
2.985e-06,-0.99746,4.98433e-05
2.995e-06,-0.998867,4.99875e-05
3.005e-06,-0.996756,4.96991e-05
3.015e-06,-0.995349,4.84735e-05
3.025e-06,-0.996756,4.79688e-05
3.035e-06,-0.998867,4.74641e-05
3.045e-06,-0.996756,4.81851e-05
3.055e-06,-0.993942,4.98433e-05
3.065e-06,-0.999571,5.01317e-05
3.075e-06,-0.994645,4.89781e-05
3.085e-06,-0.996053,4.92665e-05
3.095e-06,-0.996053,5.03479e-05
3.105e-06,-0.999571,5.06363e-05
3.115e-06,-0.994645,4.99875e-05
3.125e-06,-0.995349,4.98433e-05
3.135e-06,-0.99746,5.03479e-05
3.145e-06,-0.996053,5.03479e-05
3.155e-06,-0.998163,5.02038e-05
3.165e-06,-0.996053,4.9627e-05
3.175e-06,-0.998867,4.93386e-05
3.185e-06,-0.996756,5.042e-05
3.195e-06,-0.994645,5.1141e-05
3.205e-06,-0.99746,5.02759e-05
3.215e-06,-0.996053,4.8906e-05
3.225e-06,-0.999571,4.91223e-05
3.235e-06,-0.996053,4.87619e-05
3.245e-06,-0.996053,4.86898e-05
3.255e-06,-0.996053,4.84014e-05
3.265e-06,-0.99746,4.94828e-05
3.275e-06,-0.99746,5.02759e-05
3.285e-06,-0.99746,5.00596e-05
3.295e-06,-0.998163,4.9627e-05
3.305e-06,-0.996053,4.92665e-05
3.315e-06,-1.00168,4.94828e-05
3.325e-06,-0.996756,4.96991e-05
3.335e-06,-0.99746,4.9627e-05
3.345e-06,-0.999571,5.01317e-05
3.355e-06,-0.996756,4.96991e-05
3.365e-06,-0.996053,4.91944e-05
3.375e-06,-0.995349,4.88339e-05
3.385e-06,-0.993942,4.89781e-05
3.395e-06,-0.996053,4.96991e-05
3.405e-06,-0.996053,5.08526e-05
3.415e-06,-0.996756,5.06363e-05
3.425e-06,-0.993942,4.99154e-05
3.435e-06,-0.995349,4.87619e-05
3.445e-06,-0.998163,4.94107e-05
3.455e-06,-0.99746,4.97712e-05
3.465e-06,-0.998163,5.07805e-05
3.475e-06,-0.994645,5.03479e-05
3.485e-06,-0.996756,4.9627e-05
3.495e-06,-0.996756,4.97712e-05
3.505e-06,-0.998867,5.04921e-05
3.515e-06,-0.993942,5.03479e-05
3.525e-06,-0.99746,4.97712e-05
3.535e-06,-0.998163,4.92665e-05
3.545e-06,-0.99746,4.89781e-05
3.555e-06,-0.996756,4.94107e-05
3.565e-06,-0.998163,4.98433e-05
3.575e-06,-0.998867,4.97712e-05
3.585e-06,-0.99746,4.88339e-05
3.595e-06,-0.993942,4.77525e-05
3.605e-06,-0.996053,4.72479e-05
3.615e-06,-0.996053,4.78967e-05
3.625e-06,-0.998163,4.86898e-05
3.635e-06,-0.996053,4.95549e-05
3.645e-06,-0.99746,4.9627e-05
3.655e-06,-1.00098,4.9627e-05
3.665e-06,-0.998163,4.9627e-05
3.675e-06,-0.996053,5.02759e-05
3.685e-06,-0.998163,5.08526e-05
3.695e-06,-0.996756,5.12852e-05
3.705e-06,-0.998163,5.01317e-05
3.715e-06,-0.996053,4.92665e-05
3.725e-06,-0.996756,4.97712e-05
3.735e-06,-0.998163,5.02038e-05
3.745e-06,-0.998163,5.12131e-05
3.755e-06,-0.999571,5.07084e-05
3.765e-06,-0.996756,5.02759e-05
3.775e-06,-0.998163,4.95549e-05
3.785e-06,-0.99746,4.99875e-05
3.795e-06,-0.998867,5.08526e-05
3.805e-06,-0.998867,5.042e-05
3.815e-06,-0.996756,4.98433e-05
3.825e-06,-0.995349,4.94107e-05
3.835e-06,-0.998163,4.8906e-05
3.845e-06,-0.999571,4.87619e-05
3.855e-06,-0.996053,4.90502e-05
3.865e-06,-0.996053,4.87619e-05
3.875e-06,-0.998163,4.87619e-05
3.885e-06,-0.99746,4.84735e-05
3.895e-06,-0.998163,4.89781e-05
3.905e-06,-0.99746,4.83293e-05
3.915e-06,-0.996756,4.84014e-05
3.925e-06,-0.998867,4.91223e-05
3.935e-06,-0.996756,4.99875e-05
3.945e-06,-0.996053,5.02038e-05
3.955e-06,-0.996756,4.96991e-05
3.965e-06,-1.00027,4.94107e-05
3.975e-06,-0.996756,4.88339e-05
3.985e-06,-0.996756,4.89781e-05
3.995e-06,-0.996756,5.042e-05
4.005e-06,-0.995349,5.01317e-05
4.015e-06,-0.995349,4.88339e-05
4.025e-06,-0.996756,4.79688e-05
4.035e-06,-0.998867,4.92665e-05
4.045e-06,-0.996756,5.02038e-05
4.055e-06,-0.995349,4.97712e-05
4.065e-06,-0.994645,4.93386e-05
4.075e-06,-0.99746,4.8906e-05
4.085e-06,-0.998163,4.86177e-05
4.095e-06,-0.994645,4.83293e-05
4.105e-06,-0.995349,4.88339e-05
4.115e-06,-0.994645,5.042e-05
4.125e-06,-0.996756,5.17178e-05
4.135e-06,-0.996756,5.12131e-05
4.145e-06,-0.996053,4.99154e-05
4.155e-06,-0.99746,4.90502e-05
4.165e-06,-0.99746,4.78967e-05
4.175e-06,-0.995349,4.81851e-05
4.185e-06,-0.995349,4.94828e-05
4.195e-06,-0.996756,4.9627e-05
4.205e-06,-0.996756,4.92665e-05
4.215e-06,-0.99746,4.9627e-05
4.225e-06,-0.996756,4.8906e-05
4.235e-06,-0.996756,4.87619e-05
4.245e-06,-0.998867,4.9627e-05
4.255e-06,-0.99746,4.97712e-05
4.265e-06,-0.996756,4.97712e-05
4.275e-06,-0.996756,4.95549e-05
4.285e-06,-0.995349,4.91944e-05
4.295e-06,-0.995349,4.93386e-05
4.305e-06,-0.993942,5.04921e-05
4.315e-06,-0.996756,5.14294e-05
4.325e-06,-0.99746,5.07805e-05
4.335e-06,-0.995349,5.02759e-05
4.345e-06,-0.995349,4.99154e-05
4.355e-06,-0.998163,5.042e-05
4.365e-06,-0.996053,5.09247e-05
4.375e-06,-0.996756,5.00596e-05
4.385e-06,-0.994645,4.96991e-05
4.395e-06,-0.996053,4.94828e-05
4.405e-06,-0.995349,4.9627e-05
4.415e-06,-0.996756,4.94107e-05
4.425e-06,-0.993238,4.83293e-05
4.435e-06,-0.995349,4.85456e-05
4.445e-06,-0.996053,4.89781e-05
4.455e-06,-0.996053,4.95549e-05
4.465e-06,-0.99746,5.02038e-05
4.475e-06,-1.00168,5.00596e-05
4.485e-06,-0.994645,4.91223e-05
4.495e-06,-0.996756,4.96991e-05
4.505e-06,-0.996756,5.00596e-05
4.515e-06,-0.994645,5.03479e-05
4.525e-06,-0.996756,4.88339e-05
4.535e-06,-0.999571,4.87619e-05
4.545e-06,-0.998163,4.91223e-05
4.555e-06,-0.994645,4.95549e-05
4.565e-06,-0.996053,4.94828e-05
4.575e-06,-0.996053,4.85456e-05
4.585e-06,-0.99746,4.79688e-05
4.595e-06,-0.995349,4.91223e-05
4.605e-06,-0.996053,5.09247e-05
4.615e-06,-0.996756,5.1141e-05
4.625e-06,-0.99746,4.99154e-05
4.635e-06,-0.996053,4.86898e-05
4.645e-06,-0.998163,4.90502e-05
4.655e-06,-0.994645,4.9627e-05
4.665e-06,-0.99746,5.03479e-05
4.675e-06,-0.99746,5.02038e-05
4.685e-06,-0.99746,4.87619e-05
4.695e-06,-0.994645,4.88339e-05
4.705e-06,-0.996053,4.91223e-05
4.715e-06,-0.99746,4.9627e-05
4.725e-06,-0.996756,4.95549e-05
4.735e-06,-0.99746,4.83293e-05
4.745e-06,-0.998867,4.89781e-05
4.755e-06,-0.995349,4.99154e-05
4.765e-06,-0.994645,5.09968e-05
4.775e-06,-0.996756,5.12131e-05
4.785e-06,-0.995349,4.96991e-05
4.795e-06,-0.998163,4.88339e-05
4.805e-06,-0.996756,4.96991e-05
4.815e-06,-0.99746,5.09968e-05
4.825e-06,-0.999571,5.08526e-05
4.835e-06,-0.993942,5.01317e-05
4.845e-06,-0.995349,4.91944e-05
4.855e-06,-0.996053,4.86898e-05
4.865e-06,-0.993238,4.91944e-05
4.875e-06,-0.995349,5.05642e-05
4.885e-06,-0.998867,5.09968e-05
4.895e-06,-0.996756,5.15015e-05
4.905e-06,-0.994645,5.09247e-05
4.915e-06,-0.998163,4.93386e-05
4.925e-06,-0.996053,4.86177e-05
4.935e-06,-0.996053,4.92665e-05
4.945e-06,-0.996053,5.02038e-05
4.955e-06,-0.99746,5.10689e-05
4.965e-06,-0.994645,5.05642e-05
4.975e-06,-0.993942,4.9627e-05
4.985e-06,-0.996053,5.00596e-05
4.995e-06,-0.994645,4.96991e-05
5.005e-06,-0.996756,4.83293e-05
5.015e-06,-0.995349,4.91944e-05
5.025e-06,-0.998163,5.07084e-05
5.035e-06,-0.996756,4.94107e-05
5.045e-06,-0.996756,4.93386e-05
5.055e-06,-0.995349,5.07084e-05
5.065e-06,-0.996053,5.15736e-05
5.075e-06,-0.995349,5.07805e-05
5.085e-06,-0.996053,5.12852e-05
5.095e-06,-0.99746,5.09968e-05
5.105e-06,-0.996756,5.02038e-05
5.115e-06,-0.996756,5.12852e-05
5.125e-06,-0.993942,5.13573e-05
5.135e-06,-0.998867,5.02759e-05
5.145e-06,-0.99746,4.99154e-05
5.155e-06,-0.994645,5.00596e-05
5.165e-06,-0.996756,4.93386e-05
5.175e-06,-0.99746,4.92665e-05
5.185e-06,-0.993942,4.90502e-05
5.195e-06,-0.996053,4.83293e-05
5.205e-06,-0.99746,4.91223e-05
5.215e-06,-0.996756,5.08526e-05
5.225e-06,-0.998163,5.09247e-05
5.235e-06,-0.996053,4.99875e-05
5.245e-06,-0.996053,4.94107e-05
5.255e-06,-0.99746,4.95549e-05
5.265e-06,-0.996053,4.94828e-05
5.275e-06,-0.99746,4.95549e-05
5.285e-06,-0.998163,4.99875e-05
5.295e-06,-0.996756,5.03479e-05
5.305e-06,-0.996756,5.05642e-05
5.315e-06,-0.993942,5.10689e-05
5.325e-06,-0.996756,5.00596e-05
5.335e-06,-0.996756,4.97712e-05
5.345e-06,-0.998163,4.90502e-05
5.355e-06,-0.998867,4.94828e-05
5.365e-06,-0.99746,4.99154e-05
5.375e-06,-0.99746,4.98433e-05
5.385e-06,-0.995349,4.99154e-05
5.395e-06,-0.995349,5.01317e-05
5.405e-06,-0.996756,4.98433e-05
5.415e-06,-0.999571,5.02759e-05
5.425e-06,-0.998867,5.06363e-05
5.435e-06,-0.995349,5.04921e-05
5.445e-06,-0.996756,5.15736e-05
5.455e-06,-0.998867,5.13573e-05
5.465e-06,-0.995349,5.05642e-05
5.475e-06,-0.99746,5.07084e-05
5.485e-06,-0.996756,5.12131e-05
5.495e-06,-0.996053,5.09247e-05
5.505e-06,-0.996756,5.09968e-05
5.515e-06,-0.995349,5.03479e-05
5.525e-06,-0.995349,4.94828e-05
5.535e-06,-0.99746,5.06363e-05
5.545e-06,-0.999571,5.12131e-05
5.555e-06,-0.993942,5.18619e-05
5.565e-06,-0.996053,5.22224e-05
5.575e-06,-0.996053,5.10689e-05
5.585e-06,-0.996053,4.94828e-05
5.595e-06,-0.99746,4.94107e-05
5.605e-06,-0.998867,4.95549e-05
5.615e-06,-0.996756,4.98433e-05
5.625e-06,-0.998867,5.06363e-05
5.635e-06,-0.996756,4.99875e-05
5.645e-06,-0.996756,4.92665e-05
5.655e-06,-0.99746,4.91223e-05
5.665e-06,-0.998163,4.99154e-05
5.675e-06,-0.998867,5.08526e-05
5.685e-06,-0.998867,5.21503e-05
5.695e-06,-0.996053,5.25108e-05
5.705e-06,-0.996053,5.18619e-05
5.715e-06,-0.998867,5.09247e-05
5.725e-06,-0.996053,4.99875e-05
5.735e-06,-0.99746,4.95549e-05
5.745e-06,-0.994645,4.91223e-05
5.755e-06,-0.996756,4.93386e-05
5.765e-06,-0.998163,4.91223e-05
5.775e-06,-0.99746,4.99154e-05
5.785e-06,-0.996053,4.8906e-05
5.795e-06,-0.99746,4.8906e-05
5.805e-06,-0.984795,4.92665e-05
5.815e-06,-0.910918,4.9627e-05
5.825e-06,-0.811711,4.26338e-05
5.835e-06,-0.712504,1.16328e-05
5.845e-06,-0.612594,-5.32529e-05
5.855e-06,-0.506351,-0.000152888
5.865e-06,-0.410662,-0.000283092
5.875e-06,-0.309345,-0.000435502
5.885e-06,-0.208731,-0.000599663
5.895e-06,-0.112338,-0.000764977
5.905e-06,-0.0215748,-0.00092301
5.915e-06,0.00516177,-0.00107066
5.925e-06,0.00305098,-0.00117426
5.935e-06,-0.00187418,-0.00117505
5.945e-06,0.000940201,-0.00117505
5.955e-06,-0.00117058,-0.00117505
5.965e-06,-0.00468855,-0.00117505
5.975e-06,-0.00257777,-0.00117505
5.985e-06,-0.000466987,-0.00116374
5.995e-06,-0.00328136,-0.0010822
6.005e-06,0.000940201,-0.000990635
6.015e-06,-0.00257777,-0.000902535
6.025e-06,-0.00257777,-0.00082049
6.035e-06,-0.00609574,-0.000743997
6.045e-06,-0.00187418,-0.000675651
6.055e-06,-0.00257777,-0.000615884
6.065e-06,-0.00328136,-0.000563615
6.075e-06,-0.00117058,-0.000517041
6.085e-06,-0.00539215,-0.000477461
6.095e-06,-0.00257777,-0.000443
6.105e-06,-0.0447934,-0.000409836
6.115e-06,-0.291755,-0.000377032
6.125e-06,-0.649181,-0.000324259
6.135e-06,-1.00379,-0.00019355
6.145e-06,-1.35489,5.33039e-05
6.155e-06,-1.70668,0.00042272
6.165e-06,-2.05778,0.000906839
6.175e-06,-2.40465,0.00118102
6.185e-06,-2.75152,0.00118102
6.195e-06,-3.0998,0.00118102
6.205e-06,-3.39883,0.00118102
6.215e-06,-3.50929,0.00118102
6.225e-06,-3.50718,0.00118102
6.235e-06,-3.49733,0.00118102
6.245e-06,-3.49522,0.00118102
6.255e-06,-3.48889,0.00118102
6.265e-06,-3.48889,0.00118102
6.275e-06,-3.48607,0.00118102
6.285e-06,-3.49592,0.00118102
6.295e-06,-3.48537,0.00118102
6.305e-06,-3.48185,0.00118102
6.315e-06,-3.47904,0.00118102
6.325e-06,-3.48044,0.00118102
6.335e-06,-3.48044,0.00118102
6.345e-06,-3.47763,0.00118102
6.355e-06,-3.47974,0.00118102
